Date,Low,Open,Volume,High,Close,Adjusted Close
04-10-1989,2.4375,2.46875,20636000,2.546875,2.5,1.8275818824768066
05-10-1989,2.5,2.515625,6453600,2.625,2.578125,1.884695053100586
06-10-1989,2.546875,2.59375,2755200,2.625,2.546875,1.8618496656417847
09-10-1989,2.5,2.546875,1084000,2.546875,2.546875,1.8618496656417847
10-10-1989,2.5,2.5625,1493600,2.5625,2.53125,1.8504263162612915
11-10-1989,2.46875,2.5,1260000,2.515625,2.515625,1.8390042781829834
12-10-1989,2.515625,2.515625,602400,2.546875,2.53125,1.8504263162612915
13-10-1989,2.46875,2.53125,3970400,2.53125,2.484375,1.8161603212356567
16-10-1989,2.375,2.375,3924800,2.46875,2.46875,1.8047384023666382
17-10-1989,2.4375,2.4375,1843200,2.5,2.5,1.8275818824768066
18-10-1989,2.484375,2.5,1128000,2.5625,2.546875,1.8618496656417847
19-10-1989,2.53125,2.53125,1040000,2.546875,2.546875,1.8618496656417847
20-10-1989,2.515625,2.53125,237600,2.53125,2.53125,1.8504263162612915
23-10-1989,2.546875,2.546875,87200,2.5625,2.546875,1.8618496656417847
24-10-1989,2.53125,2.546875,689600,2.5625,2.5625,1.8732720613479614
25-10-1989,2.515625,2.546875,608000,2.578125,2.546875,1.8618496656417847
26-10-1989,2.546875,2.546875,228800,2.5625,2.546875,1.8618496656417847
27-10-1989,2.5,2.546875,456000,2.546875,2.515625,1.8390042781829834
30-10-1989,2.5,2.515625,250400,2.515625,2.5,1.8275818824768066
31-10-1989,2.5,2.5,424800,2.515625,2.5,1.8275818824768066
01-11-1989,2.515625,2.515625,715200,2.5625,2.5625,1.8732720613479614
02-11-1989,2.59375,2.59375,130400,2.640625,2.640625,1.930383324623108
03-11-1989,2.625,2.625,1118400,2.75,2.734375,1.9989190101623535
06-11-1989,2.578125,2.71875,264800,2.71875,2.578125,1.884695053100586
07-11-1989,2.5,2.546875,727200,2.6875,2.6875,1.964651107788086
08-11-1989,2.671875,2.6875,236800,2.71875,2.71875,1.98749577999115
09-11-1989,2.6875,2.71875,60800,2.71875,2.6875,1.964651107788086
10-11-1989,2.546875,2.6875,210400,2.6875,2.5625,1.8732720613479614
13-11-1989,2.515625,2.5625,92800,2.5625,2.546875,1.8618496656417847
14-11-1989,2.484375,2.578125,428000,2.578125,2.53125,1.8504263162612915
15-11-1989,2.53125,2.546875,176000,2.578125,2.5625,1.8732720613479614
16-11-1989,2.546875,2.546875,301600,2.59375,2.59375,1.8961154222488403
17-11-1989,2.59375,2.59375,249600,2.640625,2.640625,1.930383324623108
20-11-1989,2.609375,2.65625,43200,2.65625,2.609375,1.9075398445129395
21-11-1989,2.59375,2.59375,108800,2.671875,2.671875,1.9532281160354614
22-11-1989,2.6875,2.6875,255200,2.75,2.75,2.0103394985198975
24-11-1989,2.78125,2.78125,572000,2.953125,2.921875,2.135986328125
27-11-1989,2.859375,2.90625,253600,2.9375,2.875,2.101720094680786
28-11-1989,2.828125,2.875,560000,2.875,2.828125,2.0674521923065186
29-11-1989,2.78125,2.8125,60800,2.8125,2.796875,2.044607400894165
30-11-1989,2.8125,2.8125,712800,2.90625,2.890625,2.113142251968384
01-12-1989,2.890625,2.890625,356800,2.953125,2.90625,2.1245639324188232
04-12-1989,2.875,2.9375,172000,2.984375,2.984375,2.1816766262054443
05-12-1989,2.90625,2.953125,93600,2.984375,2.90625,2.1245639324188232
06-12-1989,2.90625,2.90625,668800,3.0,2.984375,2.1816766262054443
07-12-1989,2.921875,2.984375,215200,2.984375,2.953125,2.1588315963745117
08-12-1989,2.921875,2.921875,122400,2.953125,2.953125,2.1588315963745117
11-12-1989,2.9375,2.96875,306400,3.03125,3.0,2.1930994987487793
12-12-1989,2.984375,3.015625,1119200,3.03125,3.015625,2.2045204639434814
13-12-1989,2.984375,3.0,400000,3.15625,3.15625,2.3073229789733887
14-12-1989,3.109375,3.125,391200,3.140625,3.125,2.284477949142456
15-12-1989,3.09375,3.140625,155200,3.140625,3.109375,2.2730541229248047
18-12-1989,3.03125,3.078125,224000,3.125,3.03125,2.2159435749053955
19-12-1989,3.03125,3.03125,215200,3.0625,3.0625,2.2387888431549072
20-12-1989,3.046875,3.0625,166400,3.109375,3.078125,2.2502102851867676
21-12-1989,3.0625,3.109375,174400,3.125,3.109375,2.2730541229248047
22-12-1989,3.109375,3.125,173600,3.125,3.125,2.284477949142456
26-12-1989,3.078125,3.109375,97600,3.109375,3.078125,2.2502102851867676
27-12-1989,3.03125,3.0625,144000,3.0625,3.03125,2.2159435749053955
28-12-1989,3.03125,3.046875,11200,3.046875,3.03125,2.2159435749053955
29-12-1989,3.015625,3.03125,219200,3.15625,3.15625,2.3073229789733887
02-01-1990,3.03125,3.125,194400,3.125,3.046875,2.227365493774414
03-01-1990,3.03125,3.0625,361600,3.0625,3.03125,2.2159435749053955
04-01-1990,2.953125,3.03125,166400,3.0625,2.953125,2.1588315963745117
05-01-1990,2.859375,2.9375,100800,2.9375,2.90625,2.1245639324188232
08-01-1990,2.84375,2.875,880800,2.890625,2.859375,2.0902962684631348
09-01-1990,2.8125,2.828125,282400,2.84375,2.8125,2.0560302734375
10-01-1990,2.6875,2.765625,784000,2.765625,2.703125,1.9804744720458984
11-01-1990,2.703125,2.71875,347200,2.765625,2.75,2.0148167610168457
12-01-1990,2.6875,2.71875,159200,2.734375,2.71875,1.9919217824935913
15-01-1990,2.71875,2.734375,25600,2.734375,2.71875,1.9919217824935913
16-01-1990,2.625,2.6875,172800,2.703125,2.703125,1.9804744720458984
17-01-1990,2.71875,2.71875,216000,2.8125,2.71875,1.9919217824935913
18-01-1990,2.6875,2.6875,157600,2.71875,2.703125,1.9804744720458984
19-01-1990,2.734375,2.734375,8800,2.75,2.75,2.0148167610168457
22-01-1990,2.71875,2.734375,56800,2.75,2.734375,2.0033702850341797
23-01-1990,2.734375,2.765625,101600,2.765625,2.75,2.0148167610168457
24-01-1990,2.6875,2.734375,26400,2.734375,2.6875,1.9690265655517578
25-01-1990,2.671875,2.6875,249600,2.71875,2.71875,1.9919217824935913
26-01-1990,2.671875,2.703125,45600,2.71875,2.671875,1.9575775861740112
29-01-1990,2.625,2.6875,444000,2.6875,2.640625,1.9346827268600464
30-01-1990,2.578125,2.625,548000,2.65625,2.65625,1.9461308717727661
31-01-1990,2.6875,2.6875,757600,2.859375,2.859375,2.09495210647583
01-02-1990,2.84375,2.875,149600,2.875,2.859375,2.09495210647583
02-02-1990,2.875,2.875,720000,2.90625,2.875,2.106400728225708
05-02-1990,2.875,2.90625,163200,2.90625,2.875,2.106400728225708
06-02-1990,2.84375,2.875,99200,2.90625,2.890625,2.1178479194641113
07-02-1990,2.90625,2.90625,32800,2.9375,2.9375,2.1521921157836914
08-02-1990,2.96875,2.96875,346400,3.125,3.046875,2.2323267459869385
09-02-1990,2.96875,3.078125,179200,3.125,3.0,2.197983741760254
12-02-1990,2.90625,3.0,28000,3.0,2.90625,2.1292965412139893
13-02-1990,2.9375,2.9375,26400,2.953125,2.953125,2.163639545440674
14-02-1990,2.9375,2.953125,32800,2.96875,2.9375,2.1521921157836914
15-02-1990,2.953125,2.953125,152000,2.96875,2.953125,2.163639545440674
16-02-1990,2.96875,2.96875,32000,2.96875,2.96875,2.1750869750976562
20-02-1990,2.953125,2.984375,23200,2.984375,2.953125,2.163639545440674
21-02-1990,2.90625,2.953125,553600,2.953125,2.90625,2.1292965412139893
22-02-1990,2.84375,2.90625,148000,2.90625,2.84375,2.083505153656006
23-02-1990,2.6875,2.78125,575200,2.78125,2.71875,1.9919217824935913
26-02-1990,2.734375,2.734375,477600,2.75,2.75,2.0148167610168457
27-02-1990,2.765625,2.765625,357600,2.84375,2.84375,2.083505153656006
28-02-1990,2.796875,2.8125,145600,2.828125,2.796875,2.049161672592163
01-03-1990,2.75,2.796875,225600,2.796875,2.75,2.0148167610168457
02-03-1990,2.6875,2.75,931200,2.78125,2.703125,1.9804744720458984
05-03-1990,2.65625,2.671875,146400,2.703125,2.671875,1.9575775861740112
06-03-1990,2.625,2.671875,258400,2.734375,2.734375,2.0033702850341797
07-03-1990,2.703125,2.734375,174400,2.75,2.75,2.0148167610168457
08-03-1990,2.734375,2.75,146400,2.796875,2.78125,2.0377137660980225
09-03-1990,2.734375,2.75,194400,2.78125,2.734375,2.0033702850341797
12-03-1990,2.625,2.703125,1072800,2.71875,2.6875,1.9690265655517578
13-03-1990,2.671875,2.671875,662400,2.6875,2.6875,1.9690265655517578
14-03-1990,2.671875,2.671875,298400,2.765625,2.765625,2.026266098022461
15-03-1990,2.71875,2.78125,192000,2.796875,2.71875,1.9919217824935913
16-03-1990,2.734375,2.75,271200,2.78125,2.78125,2.0377137660980225
19-03-1990,2.75,2.75,476000,2.765625,2.765625,2.026266098022461
20-03-1990,2.75,2.75,898400,2.90625,2.796875,2.049161672592163
21-03-1990,2.796875,2.796875,102400,2.8125,2.796875,2.049161672592163
22-03-1990,2.75,2.75,177600,2.765625,2.765625,2.026266098022461
23-03-1990,2.796875,2.796875,320000,2.796875,2.796875,2.049161672592163
26-03-1990,2.75,2.78125,37600,2.78125,2.75,2.0148167610168457
27-03-1990,2.734375,2.734375,24000,2.75,2.75,2.0148167610168457
28-03-1990,2.84375,2.84375,706400,2.9375,2.921875,2.1407432556152344
29-03-1990,2.890625,2.921875,361600,2.9375,2.90625,2.1292965412139893
30-03-1990,2.921875,2.921875,161600,2.921875,2.921875,2.1407432556152344
02-04-1990,2.84375,2.921875,184800,2.921875,2.875,2.106400728225708
03-04-1990,2.875,2.875,358400,3.03125,2.984375,2.186535358428955
04-04-1990,2.90625,2.984375,364800,2.984375,2.90625,2.1292965412139893
05-04-1990,2.90625,2.9375,373600,2.953125,2.90625,2.1292965412139893
06-04-1990,2.78125,2.921875,810400,2.921875,2.78125,2.0377137660980225
09-04-1990,2.734375,2.734375,336800,2.765625,2.734375,2.0078821182250977
10-04-1990,2.71875,2.75,426400,2.8125,2.765625,2.0308289527893066
11-04-1990,2.71875,2.78125,234400,2.8125,2.734375,2.0078821182250977
12-04-1990,2.59375,2.71875,456000,2.734375,2.625,1.9275668859481812
16-04-1990,2.640625,2.640625,273600,2.734375,2.703125,1.984934687614441
17-04-1990,2.703125,2.71875,16800,2.71875,2.71875,1.9964079856872559
18-04-1990,2.6875,2.6875,333600,2.75,2.71875,1.9964079856872559
19-04-1990,2.671875,2.71875,207200,2.71875,2.6875,1.9734615087509155
20-04-1990,2.65625,2.671875,168800,2.6875,2.671875,1.9619864225387573
23-04-1990,2.625,2.65625,173600,2.65625,2.625,1.9275668859481812
24-04-1990,2.625,2.625,458400,2.671875,2.625,1.9275668859481812
25-04-1990,2.640625,2.65625,104000,2.671875,2.65625,1.9505136013031006
26-04-1990,2.625,2.625,461600,2.6875,2.6875,1.9734615087509155
27-04-1990,2.6875,2.6875,133600,2.703125,2.703125,1.984934687614441
30-04-1990,2.6875,2.703125,68800,2.71875,2.71875,1.9964079856872559
01-05-1990,2.6875,2.71875,732800,2.828125,2.8125,2.065250873565674
02-05-1990,2.765625,2.78125,575200,2.828125,2.8125,2.065250873565674
03-05-1990,2.828125,2.84375,105600,2.859375,2.828125,2.076724052429199
04-05-1990,2.78125,2.84375,279200,2.84375,2.78125,2.0423033237457275
07-05-1990,2.78125,2.78125,32800,2.84375,2.84375,2.0881965160369873
08-05-1990,2.828125,2.84375,48800,2.84375,2.828125,2.076724052429199
09-05-1990,2.796875,2.84375,1232800,2.859375,2.796875,2.053776502609253
10-05-1990,2.796875,2.8125,428000,2.84375,2.796875,2.053776502609253
11-05-1990,2.828125,2.828125,172000,2.875,2.875,2.1111443042755127
14-05-1990,2.75,2.890625,2418400,2.890625,2.75,2.019355058670044
15-05-1990,2.75,2.78125,5804800,2.828125,2.8125,2.065250873565674
16-05-1990,2.8125,2.8125,367200,2.96875,2.90625,2.134092092514038
17-05-1990,2.921875,2.921875,196000,2.953125,2.953125,2.1685128211975098
18-05-1990,2.96875,2.96875,181600,3.0,3.0,2.2029340267181396
21-05-1990,2.921875,2.96875,74400,2.96875,2.953125,2.1685128211975098
22-05-1990,2.96875,2.984375,40800,2.984375,2.96875,2.179986000061035
23-05-1990,2.90625,2.96875,30400,2.96875,2.90625,2.134092092514038
24-05-1990,2.75,2.921875,483200,2.921875,2.8125,2.065250873565674
25-05-1990,2.75,2.8125,817600,2.875,2.875,2.1111443042755127
29-05-1990,2.890625,2.890625,60800,2.90625,2.90625,2.134092092514038
30-05-1990,2.921875,2.9375,129600,2.984375,2.96875,2.179986000061035
31-05-1990,2.90625,2.9375,143200,2.984375,2.96875,2.179986000061035
01-06-1990,2.953125,2.96875,47200,2.984375,2.96875,2.179986000061035
04-06-1990,2.90625,2.9375,68000,2.984375,2.984375,2.191460371017456
05-06-1990,2.796875,2.984375,1125600,3.0,2.890625,2.1226184368133545
06-06-1990,2.875,2.890625,44000,2.90625,2.875,2.1111443042755127
07-06-1990,2.859375,2.890625,212800,2.890625,2.859375,2.099670648574829
08-06-1990,2.8125,2.875,405600,2.875,2.84375,2.0881965160369873
11-06-1990,2.84375,2.859375,48800,2.890625,2.875,2.1111443042755127
12-06-1990,2.859375,2.90625,196000,3.0,2.984375,2.191460371017456
13-06-1990,2.96875,2.96875,208000,3.09375,2.96875,2.179986000061035
14-06-1990,2.9375,2.953125,20800,2.984375,2.984375,2.191460371017456
15-06-1990,2.921875,2.984375,158400,2.984375,2.96875,2.179986000061035
18-06-1990,2.96875,2.96875,1600,2.96875,2.96875,2.179986000061035
19-06-1990,2.875,2.9375,174400,2.9375,2.921875,2.1455652713775635
20-06-1990,2.90625,2.953125,127200,2.953125,2.9375,2.157038927078247
21-06-1990,2.921875,2.921875,6400,2.9375,2.9375,2.157038927078247
22-06-1990,2.921875,2.9375,356800,2.953125,2.953125,2.1685128211975098
25-06-1990,2.90625,2.921875,24800,2.9375,2.921875,2.1455652713775635
26-06-1990,2.859375,2.90625,207200,2.921875,2.921875,2.1455652713775635
27-06-1990,2.921875,2.921875,13600,2.9375,2.921875,2.1455652713775635
28-06-1990,2.9375,2.9375,157600,2.96875,2.96875,2.179986000061035
29-06-1990,2.953125,2.984375,327200,2.984375,2.96875,2.179986000061035
02-07-1990,2.875,2.953125,322400,2.953125,2.90625,2.134092092514038
03-07-1990,2.875,2.9375,308800,2.9375,2.875,2.1111443042755127
05-07-1990,2.8125,2.84375,596800,2.84375,2.828125,2.076724052429199
06-07-1990,2.78125,2.78125,82400,2.796875,2.796875,2.053776502609253
09-07-1990,2.75,2.796875,724800,2.8125,2.78125,2.0423033237457275
10-07-1990,2.765625,2.78125,1073600,2.78125,2.78125,2.046902894973755
11-07-1990,2.78125,2.78125,776000,2.8125,2.796875,2.0584030151367188
12-07-1990,2.796875,2.796875,1208800,2.90625,2.875,2.115898370742798
13-07-1990,2.90625,2.90625,568000,3.0,2.96875,2.184896230697632
16-07-1990,2.96875,2.984375,680800,3.0,2.96875,2.184896230697632
17-07-1990,2.921875,2.96875,102400,2.96875,2.921875,2.150397539138794
18-07-1990,2.84375,2.921875,348000,2.921875,2.84375,2.092900037765503
19-07-1990,2.796875,2.8125,465600,2.875,2.875,2.115898370742798
20-07-1990,2.890625,2.890625,51200,2.90625,2.890625,2.1273984909057617
23-07-1990,2.859375,2.875,349600,2.9375,2.9375,2.161897659301758
24-07-1990,2.90625,2.90625,353600,3.015625,2.984375,2.1963953971862793
25-07-1990,3.0,3.015625,52000,3.03125,3.03125,2.230894088745117
26-07-1990,3.03125,3.0625,80000,3.0625,3.0625,2.253892660140991
27-07-1990,2.984375,3.03125,75200,3.0625,2.984375,2.1963953971862793
30-07-1990,2.984375,3.0,160800,3.0,3.0,2.2078945636749268
31-07-1990,2.953125,2.953125,175200,3.015625,3.0,2.2078945636749268
01-08-1990,3.0,3.03125,134400,3.0625,3.015625,2.219393730163574
02-08-1990,3.03125,3.125,1056800,3.171875,3.171875,2.334388494491577
03-08-1990,3.109375,3.15625,1272000,3.265625,3.203125,2.357388734817505
06-08-1990,3.125,3.25,247200,3.265625,3.125,2.2998900413513184
07-08-1990,3.125,3.125,148800,3.140625,3.140625,2.3113901615142822
08-08-1990,3.09375,3.125,170400,3.140625,3.09375,2.2768917083740234
09-08-1990,3.0625,3.09375,296000,3.09375,3.09375,2.2768917083740234
10-08-1990,3.09375,3.09375,299200,3.109375,3.09375,2.2768917083740234
13-08-1990,3.078125,3.109375,56800,3.125,3.078125,2.2653932571411133
14-08-1990,3.0625,3.109375,49600,3.109375,3.0625,2.253892660140991
15-08-1990,3.0625,3.0625,196000,3.15625,3.125,2.2998900413513184
16-08-1990,3.078125,3.109375,140000,3.125,3.109375,2.2883903980255127
17-08-1990,3.125,3.140625,201600,3.1875,3.140625,2.3113901615142822
20-08-1990,3.046875,3.15625,239200,3.15625,3.046875,2.24239444732666
21-08-1990,3.0625,3.0625,452000,3.09375,3.078125,2.2653932571411133
22-08-1990,3.015625,3.0625,333600,3.09375,3.015625,2.219393730163574
23-08-1990,2.9375,3.0,364000,3.0,2.96875,2.184896230697632
24-08-1990,2.921875,2.921875,326400,3.0,3.0,2.2078945636749268
27-08-1990,2.953125,3.0,88000,3.0,2.953125,2.1733968257904053
28-08-1990,2.953125,2.953125,8000,2.984375,2.984375,2.1963953971862793
29-08-1990,2.9375,3.015625,140800,3.015625,2.9375,2.161897659301758
30-08-1990,2.90625,2.953125,65600,2.984375,2.984375,2.1963953971862793
31-08-1990,2.890625,2.953125,256800,2.984375,2.921875,2.150397539138794
04-09-1990,2.9375,2.9375,20000,2.953125,2.953125,2.1733968257904053
05-09-1990,2.953125,2.953125,223200,3.1875,3.171875,2.334388494491577
06-09-1990,3.1875,3.203125,317600,3.296875,3.296875,2.4263854026794434
07-09-1990,3.296875,3.296875,160800,3.359375,3.359375,2.4723827838897705
10-09-1990,3.328125,3.328125,1408800,3.390625,3.359375,2.4723827838897705
11-09-1990,3.1875,3.375,963200,3.375,3.3125,2.4378843307495117
12-09-1990,3.265625,3.34375,336000,3.34375,3.3125,2.4378843307495117
13-09-1990,3.25,3.3125,405600,3.328125,3.25,2.3918862342834473
14-09-1990,3.25,3.25,209600,3.390625,3.390625,2.495382070541382
17-09-1990,3.375,3.390625,1116000,3.46875,3.46875,2.5528786182403564
18-09-1990,3.46875,3.46875,776800,3.765625,3.671875,2.7023708820343018
19-09-1990,3.65625,3.6875,1624800,3.6875,3.65625,2.690871477127075
20-09-1990,3.53125,3.65625,432000,3.65625,3.53125,2.598876714706421
21-09-1990,3.46875,3.484375,521600,3.5625,3.5625,2.621875524520874
24-09-1990,3.484375,3.5625,112800,3.5625,3.515625,2.5873782634735107
25-09-1990,3.5,3.5,221600,3.515625,3.515625,2.5873782634735107
26-09-1990,3.453125,3.515625,55200,3.515625,3.46875,2.5528786182403564
27-09-1990,3.375,3.4375,72800,3.453125,3.375,2.483881711959839
28-09-1990,3.28125,3.375,163200,3.375,3.34375,2.460883855819702
01-10-1990,3.296875,3.328125,455200,3.390625,3.34375,2.460883855819702
02-10-1990,3.328125,3.359375,72000,3.359375,3.359375,2.4723827838897705
03-10-1990,3.3125,3.34375,26400,3.34375,3.34375,2.460883855819702
04-10-1990,3.25,3.34375,313600,3.34375,3.25,2.3918862342834473
05-10-1990,3.1875,3.234375,550400,3.296875,3.1875,2.345888137817383
08-10-1990,3.1875,3.203125,411200,3.234375,3.1875,2.345888137817383
09-10-1990,3.203125,3.203125,298400,3.375,3.34375,2.4657182693481445
10-10-1990,3.21875,3.34375,200000,3.34375,3.234375,2.385063886642456
11-10-1990,3.203125,3.25,34400,3.25,3.21875,2.3735415935516357
12-10-1990,3.171875,3.1875,89600,3.203125,3.203125,2.3620190620422363
15-10-1990,3.15625,3.203125,36800,3.203125,3.15625,2.32745361328125
16-10-1990,3.109375,3.140625,153600,3.15625,3.109375,2.2928879261016846
17-10-1990,3.09375,3.109375,11200,3.125,3.125,2.3044090270996094
18-10-1990,3.109375,3.109375,113600,3.125,3.109375,2.2928879261016846
19-10-1990,3.078125,3.109375,36800,3.109375,3.09375,2.2813644409179688
22-10-1990,3.0625,3.109375,68000,3.109375,3.0625,2.2583205699920654
23-10-1990,3.0625,3.0625,17600,3.109375,3.109375,2.2928879261016846
24-10-1990,3.125,3.125,120000,3.15625,3.15625,2.32745361328125
25-10-1990,3.1875,3.1875,112800,3.328125,3.328125,2.4541969299316406
26-10-1990,3.3125,3.3125,22400,3.359375,3.359375,2.4772396087646484
29-10-1990,3.359375,3.375,16000,3.375,3.359375,2.4772396087646484
30-10-1990,3.28125,3.34375,29600,3.359375,3.296875,2.431151866912842
31-10-1990,3.3125,3.3125,366400,3.453125,3.375,2.4887616634368896
01-11-1990,3.359375,3.375,163200,3.375,3.375,2.4887616634368896
02-11-1990,3.375,3.375,469600,3.53125,3.5,2.5809383392333984
05-11-1990,3.46875,3.53125,426400,3.546875,3.46875,2.557894468307495
06-11-1990,3.421875,3.484375,8800,3.484375,3.421875,2.5233285427093506
07-11-1990,3.375,3.421875,148000,3.421875,3.375,2.4887616634368896
08-11-1990,3.34375,3.34375,37600,3.390625,3.390625,2.5002849102020264
09-11-1990,3.375,3.375,397600,3.4375,3.421875,2.5233285427093506
12-11-1990,3.328125,3.390625,76800,3.390625,3.328125,2.4541969299316406
13-11-1990,3.109375,3.15625,208000,3.15625,3.109375,2.2928879261016846
14-11-1990,3.109375,3.125,75200,3.1875,3.1875,2.350497007369995
15-11-1990,3.125,3.15625,45600,3.171875,3.140625,2.3159306049346924
16-11-1990,3.09375,3.140625,300800,3.15625,3.15625,2.32745361328125
19-11-1990,2.984375,3.15625,456800,3.15625,2.984375,2.200711250305176
20-11-1990,2.84375,2.96875,329600,2.96875,2.921875,2.1546216011047363
21-11-1990,2.890625,2.90625,32800,2.96875,2.96875,2.189188241958618
23-11-1990,2.96875,2.96875,18400,2.984375,2.96875,2.189188241958618
26-11-1990,2.96875,2.984375,40000,3.0,2.96875,2.189188241958618
27-11-1990,2.9375,2.984375,39200,2.984375,2.953125,2.1776676177978516
28-11-1990,2.90625,2.953125,145600,2.953125,2.921875,2.1546216011047363
29-11-1990,2.90625,2.90625,36800,2.90625,2.90625,2.143101453781128
30-11-1990,2.765625,2.875,236000,2.890625,2.8125,2.0739688873291016
03-12-1990,2.609375,2.796875,366400,2.796875,2.75,2.0278799533843994
04-12-1990,2.671875,2.734375,230400,2.734375,2.71875,2.004836320877075
05-12-1990,2.71875,2.71875,432000,2.796875,2.78125,2.05092453956604
06-12-1990,2.734375,2.78125,248800,2.8125,2.75,2.0278799533843994
07-12-1990,2.625,2.71875,257600,2.71875,2.71875,2.004836320877075
10-12-1990,2.703125,2.734375,179200,2.734375,2.71875,2.004836320877075
11-12-1990,2.703125,2.703125,981600,2.78125,2.734375,2.016357898712158
12-12-1990,2.734375,2.75,493600,2.78125,2.78125,2.05092453956604
13-12-1990,2.71875,2.75,908000,2.75,2.71875,2.004836320877075
14-12-1990,2.65625,2.71875,207200,2.78125,2.78125,2.05092453956604
17-12-1990,2.734375,2.796875,89600,2.828125,2.734375,2.016357898712158
18-12-1990,2.703125,2.765625,153600,2.796875,2.703125,1.993314266204834
19-12-1990,2.640625,2.703125,277600,2.734375,2.640625,1.9472260475158691
20-12-1990,2.546875,2.609375,1007200,2.609375,2.5625,1.8896169662475586
21-12-1990,2.484375,2.484375,980000,2.515625,2.5,1.8435275554656982
24-12-1990,2.5,2.5,222400,2.546875,2.546875,1.8780930042266846
26-12-1990,2.5625,2.5625,93600,2.75,2.75,2.0278799533843994
27-12-1990,2.71875,2.75,51200,2.75,2.734375,2.016357898712158
28-12-1990,2.65625,2.71875,49600,2.71875,2.65625,1.9587479829788208
31-12-1990,2.53125,2.65625,364800,2.65625,2.65625,1.9587479829788208
02-01-1991,2.59375,2.625,36000,2.625,2.59375,1.91265869140625
03-01-1991,2.484375,2.59375,413600,2.59375,2.484375,1.8320057392120361
04-01-1991,2.328125,2.4375,216800,2.4375,2.328125,1.7167837619781494
07-01-1991,2.21875,2.296875,599200,2.3125,2.265625,1.670696496963501
08-01-1991,2.15625,2.25,679200,2.265625,2.15625,1.590041995048523
09-01-1991,2.140625,2.171875,572000,2.1875,2.140625,1.5831094980239868
10-01-1991,2.09375,2.125,296000,2.140625,2.140625,1.5831094980239868
11-01-1991,2.109375,2.109375,278400,2.21875,2.21875,1.6408871412277222
14-01-1991,2.21875,2.234375,172800,2.265625,2.25,1.6639964580535889
15-01-1991,2.171875,2.25,92800,2.25,2.234375,1.6524426937103271
16-01-1991,2.171875,2.234375,50400,2.25,2.203125,1.6293314695358276
17-01-1991,2.03125,2.1875,1341600,2.25,2.203125,1.6293314695358276
18-01-1991,2.15625,2.203125,275200,2.21875,2.1875,1.6177754402160645
21-01-1991,2.0625,2.15625,550400,2.15625,2.125,1.5715529918670654
22-01-1991,2.125,2.15625,174400,2.171875,2.125,1.5715529918670654
23-01-1991,2.140625,2.140625,837600,2.265625,2.25,1.6639964580535889
24-01-1991,2.265625,2.3125,495200,2.34375,2.28125,1.6871089935302734
25-01-1991,2.21875,2.3125,817600,2.375,2.25,1.6639964580535889
28-01-1991,2.203125,2.28125,679200,2.296875,2.234375,1.6524426937103271
29-01-1991,2.25,2.25,99200,2.265625,2.25,1.6639964580535889
30-01-1991,2.203125,2.21875,132000,2.25,2.234375,1.6524426937103271
31-01-1991,2.15625,2.21875,384800,2.21875,2.171875,1.6062203645706177
01-02-1991,2.15625,2.15625,869600,2.21875,2.21875,1.6408871412277222
04-02-1991,2.203125,2.21875,961600,2.28125,2.25,1.6639964580535889
05-02-1991,2.25,2.25,1217600,2.375,2.28125,1.6871089935302734
06-02-1991,2.28125,2.28125,1186400,2.5,2.484375,1.8373312950134277
07-02-1991,2.546875,2.546875,1224000,2.78125,2.6875,1.9875530004501343
08-02-1991,2.640625,2.65625,94400,2.6875,2.671875,1.9759970903396606
11-02-1991,2.640625,2.6875,307200,2.75,2.703125,1.9991087913513184
12-02-1991,2.59375,2.734375,216000,2.734375,2.59375,1.918218731880188
13-02-1991,2.625,2.625,45600,2.703125,2.703125,1.9991087913513184
14-02-1991,2.515625,2.6875,148800,2.6875,2.515625,1.8604426383972168
15-02-1991,2.484375,2.484375,356800,2.609375,2.609375,1.9297760725021362
19-02-1991,2.515625,2.59375,160800,2.59375,2.546875,1.8835524320602417
20-02-1991,2.515625,2.546875,219200,2.625,2.625,1.9413307905197144
21-02-1991,2.59375,2.609375,188000,2.625,2.59375,1.918218731880188
22-02-1991,2.453125,2.59375,408000,2.59375,2.453125,1.8142205476760864
25-02-1991,2.328125,2.453125,88800,2.453125,2.328125,1.7217743396759033
26-02-1991,2.265625,2.3125,776800,2.328125,2.3125,1.7102195024490356
27-02-1991,2.34375,2.34375,1544000,2.453125,2.4375,1.8026645183563232
28-02-1991,2.453125,2.46875,578400,2.59375,2.59375,1.918218731880188
01-03-1991,2.53125,2.59375,692800,2.59375,2.546875,1.8835524320602417
04-03-1991,2.546875,2.546875,555200,2.609375,2.59375,1.918218731880188
05-03-1991,2.5625,2.5625,418400,2.578125,2.578125,1.9066640138626099
06-03-1991,2.546875,2.546875,180800,2.59375,2.5625,1.8951101303100586
07-03-1991,2.5625,2.5625,280800,2.625,2.625,1.9413307905197144
08-03-1991,2.59375,2.625,442400,2.78125,2.671875,1.9759970903396606
11-03-1991,2.6875,2.6875,116000,2.75,2.71875,2.0106637477874756
12-03-1991,2.6875,2.75,163200,2.75,2.6875,1.9875530004501343
13-03-1991,2.59375,2.671875,147200,2.671875,2.59375,1.918218731880188
14-03-1991,2.546875,2.578125,184000,2.59375,2.5625,1.8951101303100586
15-03-1991,2.546875,2.546875,289600,2.65625,2.625,1.9413307905197144
18-03-1991,2.625,2.640625,136000,2.6875,2.6875,1.9875530004501343
19-03-1991,2.609375,2.65625,172000,2.65625,2.625,1.9413307905197144
20-03-1991,2.625,2.625,71200,2.65625,2.65625,1.9644421339035034
21-03-1991,2.65625,2.671875,327200,2.734375,2.734375,2.02221941947937
22-03-1991,2.703125,2.734375,93600,2.734375,2.703125,1.9991087913513184
25-03-1991,2.640625,2.71875,115200,2.71875,2.703125,1.9991087913513184
26-03-1991,2.625,2.671875,447200,2.6875,2.65625,1.9644421339035034
27-03-1991,2.578125,2.640625,86400,2.640625,2.578125,1.9066640138626099
28-03-1991,2.515625,2.578125,70400,2.59375,2.515625,1.8604426383972168
01-04-1991,2.453125,2.53125,128000,2.53125,2.453125,1.8142205476760864
02-04-1991,2.359375,2.46875,367200,2.46875,2.375,1.7564414739608765
03-04-1991,2.3125,2.359375,1358400,2.4375,2.3125,1.7102195024490356
04-04-1991,2.34375,2.34375,1049600,2.40625,2.40625,1.779552936553955
05-04-1991,2.421875,2.421875,73600,2.484375,2.484375,1.8373312950134277
08-04-1991,2.4375,2.46875,24000,2.46875,2.4375,1.8026645183563232
09-04-1991,2.375,2.40625,198400,2.4375,2.4375,1.8026645183563232
10-04-1991,2.34375,2.421875,198400,2.421875,2.390625,1.7725427150726318
11-04-1991,2.359375,2.40625,255200,2.4375,2.40625,1.7841277122497559
12-04-1991,2.390625,2.40625,398400,2.46875,2.46875,1.8304691314697266
15-04-1991,2.5,2.5,258400,2.5625,2.546875,1.8883947134017944
16-04-1991,2.53125,2.53125,468000,2.640625,2.625,1.9463216066360474
17-04-1991,2.578125,2.640625,662400,2.640625,2.578125,1.9115656614303589
18-04-1991,2.609375,2.609375,68800,2.640625,2.625,1.9463216066360474
19-04-1991,2.5625,2.609375,20000,2.625,2.578125,1.9115656614303589
22-04-1991,2.484375,2.578125,263200,2.578125,2.5,1.853639841079712
23-04-1991,2.453125,2.484375,69600,2.5,2.5,1.853639841079712
24-04-1991,2.46875,2.5,44800,2.5,2.5,1.853639841079712
25-04-1991,2.46875,2.484375,70400,2.484375,2.46875,1.8304691314697266
26-04-1991,2.421875,2.453125,24000,2.453125,2.4375,1.8072987794876099
29-04-1991,2.34375,2.421875,373600,2.421875,2.34375,1.7377872467041016
30-04-1991,2.328125,2.375,1024800,2.375,2.375,1.760956883430481
01-05-1991,2.34375,2.375,403200,2.421875,2.421875,1.795714259147644
02-05-1991,2.375,2.40625,714400,2.40625,2.375,1.760956883430481
03-05-1991,2.359375,2.40625,464000,2.4375,2.390625,1.7725427150726318
06-05-1991,2.359375,2.375,11200,2.375,2.359375,1.7493715286254883
07-05-1991,2.28125,2.375,360800,2.375,2.34375,1.7377872467041016
08-05-1991,2.328125,2.34375,567200,2.453125,2.4375,1.8072987794876099
09-05-1991,2.40625,2.453125,150400,2.46875,2.46875,1.8304691314697266
10-05-1991,2.375,2.453125,88800,2.453125,2.375,1.760956883430481
13-05-1991,2.28125,2.359375,872000,2.359375,2.28125,1.6914464235305786
14-05-1991,2.28125,2.28125,366400,2.375,2.3125,1.714616060256958
15-05-1991,2.3125,2.3125,276000,2.40625,2.390625,1.7725427150726318
16-05-1991,2.421875,2.453125,404000,2.46875,2.421875,1.795714259147644
17-05-1991,2.390625,2.421875,25600,2.421875,2.40625,1.7841277122497559
20-05-1991,2.390625,2.40625,121600,2.4375,2.40625,1.7841277122497559
21-05-1991,2.34375,2.4375,480800,2.4375,2.375,1.760956883430481
22-05-1991,2.375,2.375,31200,2.390625,2.390625,1.7725427150726318
23-05-1991,2.375,2.40625,240800,2.421875,2.40625,1.7841277122497559
24-05-1991,2.375,2.421875,160800,2.453125,2.390625,1.7725427150726318
28-05-1991,2.375,2.375,60000,2.453125,2.4375,1.8072987794876099
29-05-1991,2.421875,2.4375,334400,2.4375,2.4375,1.8072987794876099
30-05-1991,2.421875,2.4375,521600,2.5,2.5,1.853639841079712
31-05-1991,2.53125,2.53125,1612000,2.625,2.625,1.9463216066360474
03-06-1991,2.609375,2.65625,256000,2.6875,2.625,1.9463216066360474
04-06-1991,2.625,2.65625,1272800,2.671875,2.625,1.9463216066360474
05-06-1991,2.578125,2.625,141600,2.625,2.578125,1.9115656614303589
06-06-1991,2.5625,2.5625,201600,2.609375,2.59375,1.9231503009796143
07-06-1991,2.53125,2.59375,473600,2.59375,2.53125,1.8768092393875122
10-06-1991,2.53125,2.546875,168000,2.5625,2.53125,1.8768092393875122
11-06-1991,2.4375,2.53125,155200,2.53125,2.5,1.853639841079712
12-06-1991,2.484375,2.5,51200,2.5,2.5,1.853639841079712
13-06-1991,2.484375,2.5,1600,2.5,2.484375,1.842054843902588
14-06-1991,2.46875,2.46875,83200,2.46875,2.46875,1.8304691314697266
17-06-1991,2.453125,2.46875,21600,2.46875,2.453125,1.8188843727111816
18-06-1991,2.4375,2.46875,341600,2.46875,2.46875,1.8304691314697266
19-06-1991,2.46875,2.46875,170400,2.5,2.5,1.853639841079712
20-06-1991,2.375,2.4375,30400,2.4375,2.375,1.760956883430481
21-06-1991,2.3125,2.34375,251200,2.375,2.34375,1.7377872467041016
24-06-1991,2.3125,2.359375,124800,2.375,2.375,1.760956883430481
25-06-1991,2.359375,2.375,39200,2.375,2.359375,1.7493715286254883
26-06-1991,2.296875,2.328125,188000,2.359375,2.3125,1.714616060256958
27-06-1991,2.28125,2.3125,260800,2.34375,2.3125,1.714616060256958
28-06-1991,2.25,2.3125,418400,2.3125,2.25,1.6682744026184082
01-07-1991,2.203125,2.25,188800,2.25,2.203125,1.6335201263427734
02-07-1991,2.21875,2.21875,127200,2.25,2.234375,1.6566907167434692
03-07-1991,2.203125,2.203125,267200,2.28125,2.25,1.6682744026184082
05-07-1991,2.25,2.25,3200,2.25,2.25,1.6682744026184082
08-07-1991,2.25,2.25,192800,2.296875,2.296875,1.7030322551727295
09-07-1991,2.234375,2.28125,359200,2.3125,2.265625,1.6844441890716553
10-07-1991,2.234375,2.25,56000,2.25,2.234375,1.661210536956787
11-07-1991,2.25,2.25,152800,2.328125,2.3125,1.7192950248718262
12-07-1991,2.28125,2.34375,1025600,2.359375,2.296875,1.7076780796051025
15-07-1991,2.328125,2.328125,791200,2.375,2.375,1.7657619714736938
16-07-1991,2.34375,2.359375,1204800,2.421875,2.421875,1.8006134033203125
17-07-1991,2.4375,2.453125,1052000,2.59375,2.59375,1.9283978939056396
18-07-1991,2.625,2.625,304800,2.671875,2.671875,1.9864816665649414
19-07-1991,2.609375,2.671875,73600,2.671875,2.625,1.9516329765319824
22-07-1991,2.5625,2.625,72000,2.625,2.59375,1.9283978939056396
23-07-1991,2.578125,2.609375,124000,2.625,2.578125,1.916780948638916
24-07-1991,2.578125,2.578125,39200,2.59375,2.578125,1.916780948638916
25-07-1991,2.5625,2.5625,232800,2.578125,2.5625,1.9051647186279297
26-07-1991,2.5625,2.5625,226400,2.59375,2.59375,1.9283978939056396
29-07-1991,2.59375,2.609375,6400,2.609375,2.609375,1.940016269683838
30-07-1991,2.59375,2.59375,582400,2.65625,2.625,1.9516329765319824
31-07-1991,2.53125,2.5625,698400,2.578125,2.53125,1.8819310665130615
01-08-1991,2.53125,2.53125,248800,2.578125,2.5625,1.9051647186279297
02-08-1991,2.546875,2.546875,71200,2.546875,2.546875,1.8935476541519165
05-08-1991,2.546875,2.5625,96800,2.578125,2.5625,1.9051647186279297
06-08-1991,2.5625,2.5625,457600,2.625,2.59375,1.9283978939056396
07-08-1991,2.59375,2.59375,733600,2.625,2.625,1.9516329765319824
08-08-1991,2.625,2.640625,413600,2.6875,2.640625,1.9632484912872314
09-08-1991,2.625,2.625,111200,2.65625,2.65625,1.9748650789260864
12-08-1991,2.640625,2.6875,223200,2.703125,2.65625,1.9748650789260864
13-08-1991,2.640625,2.640625,118400,2.6875,2.6875,1.9980992078781128
14-08-1991,2.671875,2.671875,372000,2.75,2.75,2.0445659160614014
15-08-1991,2.71875,2.75,369600,2.75,2.75,2.0445659160614014
16-08-1991,2.703125,2.734375,490400,2.734375,2.703125,2.0097157955169678
19-08-1991,2.609375,2.671875,91200,2.671875,2.609375,1.940016269683838
20-08-1991,2.609375,2.609375,22400,2.625,2.625,1.9516329765319824
21-08-1991,2.609375,2.625,78400,2.625,2.625,1.9516329765319824
22-08-1991,2.5625,2.640625,292800,2.640625,2.59375,1.9283978939056396
23-08-1991,2.59375,2.59375,1125600,2.75,2.75,2.0445659160614014
26-08-1991,2.734375,2.75,183200,2.78125,2.75,2.0445659160614014
27-08-1991,2.75,2.75,362400,2.84375,2.8125,2.0910348892211914
28-08-1991,2.828125,2.84375,203200,2.953125,2.9375,2.1839687824249268
29-08-1991,2.921875,2.921875,416800,3.0,2.953125,2.1955864429473877
30-08-1991,2.90625,2.96875,236800,2.96875,2.921875,2.172351837158203
03-09-1991,2.78125,2.890625,230400,2.890625,2.78125,2.067800998687744
04-09-1991,2.75,2.765625,175200,2.8125,2.765625,2.0561842918395996
05-09-1991,2.796875,2.796875,309600,2.828125,2.8125,2.0910348892211914
06-09-1991,2.78125,2.8125,55200,2.828125,2.828125,2.102651596069336
09-09-1991,2.8125,2.8125,8000,2.84375,2.84375,2.1142685413360596
10-09-1991,2.8125,2.828125,452800,2.84375,2.84375,2.1142685413360596
11-09-1991,2.8125,2.828125,145600,2.84375,2.84375,2.1142685413360596
12-09-1991,2.84375,2.859375,48000,2.859375,2.84375,2.1142685413360596
13-09-1991,2.828125,2.875,366400,2.875,2.84375,2.1142685413360596
16-09-1991,2.828125,2.859375,433600,2.859375,2.84375,2.1142685413360596
17-09-1991,2.84375,2.84375,648800,2.890625,2.890625,2.1491177082061768
18-09-1991,2.90625,2.90625,136800,2.9375,2.9375,2.1839687824249268
19-09-1991,2.921875,2.953125,153600,3.03125,3.03125,2.2536697387695312
20-09-1991,3.0,3.078125,312000,3.078125,3.03125,2.2536697387695312
23-09-1991,2.96875,3.0625,113600,3.0625,2.96875,2.207202196121216
24-09-1991,2.875,2.96875,77600,2.96875,2.875,2.1375012397766113
25-09-1991,2.875,2.890625,7200,2.890625,2.875,2.1375012397766113
26-09-1991,2.875,2.90625,296000,2.953125,2.953125,2.1955864429473877
27-09-1991,2.953125,2.96875,70400,3.0,2.96875,2.207202196121216
30-09-1991,2.953125,2.953125,229600,2.984375,2.984375,2.218820571899414
01-10-1991,2.859375,2.984375,1317600,3.0,2.859375,2.1258842945098877
02-10-1991,2.84375,2.84375,740800,2.9375,2.90625,2.160736083984375
03-10-1991,2.890625,2.90625,106400,2.90625,2.890625,2.1491177082061768
04-10-1991,2.859375,2.875,599200,2.890625,2.890625,2.1491177082061768
07-10-1991,2.859375,2.875,973600,2.9375,2.9375,2.1839687824249268
08-10-1991,2.90625,2.9375,735200,2.953125,2.9375,2.188626766204834
09-10-1991,2.90625,2.9375,43200,2.9375,2.90625,2.1653430461883545
10-10-1991,2.875,2.90625,144000,2.921875,2.90625,2.1653430461883545
11-10-1991,2.90625,2.921875,23200,2.921875,2.921875,2.1769838333129883
14-10-1991,2.9375,2.9375,32000,2.984375,2.96875,2.2119085788726807
15-10-1991,2.984375,2.984375,181600,3.015625,3.015625,2.2468347549438477
16-10-1991,3.0,3.046875,104000,3.078125,3.0,2.2351927757263184
17-10-1991,2.984375,3.0,89600,3.03125,3.03125,2.2584750652313232
18-10-1991,3.0,3.046875,87200,3.046875,3.0,2.2351927757263184
21-10-1991,2.984375,2.984375,3200,2.984375,2.984375,2.223550319671631
22-10-1991,2.875,2.953125,495200,2.953125,2.875,2.1420583724975586
23-10-1991,2.890625,2.953125,95200,2.953125,2.890625,2.153700351715088
24-10-1991,2.84375,2.875,35200,2.875,2.84375,2.1187753677368164
25-10-1991,2.75,2.8125,277600,2.8125,2.765625,2.0605673789978027
28-10-1991,2.75,2.75,181600,2.84375,2.84375,2.1187753677368164
29-10-1991,2.75,2.859375,404800,2.859375,2.765625,2.0605673789978027
30-10-1991,2.78125,2.78125,12800,2.796875,2.796875,2.083850622177124
31-10-1991,2.796875,2.8125,37600,2.84375,2.84375,2.1187753677368164
01-11-1991,2.84375,2.859375,62400,2.9375,2.9375,2.188626766204834
04-11-1991,2.921875,2.921875,624800,3.078125,3.03125,2.2584750652313232
05-11-1991,3.046875,3.046875,421600,3.140625,3.109375,2.316683769226074
06-11-1991,3.03125,3.140625,228000,3.140625,3.03125,2.2584750652313232
07-11-1991,3.0,3.046875,206400,3.046875,3.03125,2.2584750652313232
08-11-1991,3.015625,3.015625,96800,3.0625,3.0625,2.2817583084106445
11-11-1991,3.03125,3.0625,20000,3.0625,3.03125,2.2584750652313232
12-11-1991,3.0,3.0,71200,3.046875,3.03125,2.2584750652313232
13-11-1991,3.03125,3.03125,127200,3.140625,3.125,2.328324556350708
14-11-1991,3.015625,3.125,102400,3.125,3.03125,2.2584750652313232
15-11-1991,2.890625,3.015625,141600,3.015625,2.9375,2.188626766204834
18-11-1991,2.875,2.9375,236800,2.9375,2.875,2.1420583724975586
19-11-1991,2.8125,2.890625,143200,2.890625,2.8125,2.0954928398132324
20-11-1991,2.78125,2.796875,144000,2.796875,2.78125,2.072208881378174
21-11-1991,2.78125,2.78125,202400,2.84375,2.796875,2.083850622177124
22-11-1991,2.75,2.78125,97600,2.78125,2.75,2.0489256381988525
25-11-1991,2.75,2.75,16800,2.765625,2.765625,2.0605673789978027
26-11-1991,2.609375,2.75,346400,2.75,2.625,1.9557929039001465
27-11-1991,2.625,2.640625,76800,2.65625,2.625,1.9557929039001465
29-11-1991,2.640625,2.640625,28800,2.65625,2.65625,1.9790760278701782
02-12-1991,2.59375,2.65625,299200,2.671875,2.59375,1.9325088262557983
03-12-1991,2.59375,2.59375,97600,2.65625,2.65625,1.9790760278701782
04-12-1991,2.625,2.65625,20800,2.65625,2.625,1.9557929039001465
05-12-1991,2.625,2.625,96800,2.6875,2.640625,1.9674350023269653
06-12-1991,2.640625,2.640625,858400,2.65625,2.640625,1.9674350023269653
09-12-1991,2.59375,2.625,57600,2.625,2.59375,1.9325088262557983
10-12-1991,2.484375,2.5625,171200,2.5625,2.5,1.8626600503921509
11-12-1991,2.453125,2.515625,415200,2.5625,2.546875,1.8975849151611328
12-12-1991,2.515625,2.515625,124000,2.53125,2.53125,1.8859418630599976
13-12-1991,2.5,2.53125,319200,2.53125,2.5,1.8626600503921509
16-12-1991,2.484375,2.5,372800,2.515625,2.515625,1.8743021488189697
17-12-1991,2.515625,2.515625,683200,2.53125,2.53125,1.8859418630599976
18-12-1991,2.546875,2.546875,112800,2.578125,2.578125,1.9208682775497437
19-12-1991,2.53125,2.5625,392800,2.5625,2.546875,1.8975849151611328
20-12-1991,2.5,2.53125,164800,2.53125,2.515625,1.8743021488189697
23-12-1991,2.421875,2.5,1115200,2.5,2.421875,1.8044509887695312
24-12-1991,2.40625,2.421875,107200,2.515625,2.515625,1.8743021488189697
26-12-1991,2.5,2.5,15200,2.515625,2.5,1.8626600503921509
27-12-1991,2.46875,2.5,48000,2.5,2.46875,1.8393768072128296
30-12-1991,2.421875,2.46875,920800,2.46875,2.4375,1.816093921661377
31-12-1991,2.421875,2.4375,116000,2.484375,2.4375,1.816093921661377
02-01-1992,2.390625,2.421875,732000,2.421875,2.390625,1.781169056892395
03-01-1992,2.375,2.390625,277600,2.390625,2.375,1.7695268392562866
06-01-1992,2.3125,2.390625,528000,2.390625,2.328125,1.7346019744873047
07-01-1992,2.140625,2.3125,584000,2.3125,2.140625,1.5949031114578247
08-01-1992,2.109375,2.125,692800,2.203125,2.125,1.5832602977752686
09-01-1992,2.109375,2.125,348000,2.171875,2.171875,1.6571794748306274
10-01-1992,2.140625,2.15625,840800,2.234375,2.234375,1.7048671245574951
13-01-1992,2.234375,2.234375,456000,2.328125,2.296875,1.7525560855865479
14-01-1992,2.21875,2.296875,281600,2.3125,2.21875,1.692944884300232
15-01-1992,2.234375,2.234375,377600,2.296875,2.28125,1.7406333684921265
16-01-1992,2.28125,2.28125,80800,2.328125,2.328125,1.776399850845337
17-01-1992,2.359375,2.359375,47200,2.421875,2.421875,1.8479324579238892
20-01-1992,2.421875,2.421875,91200,2.53125,2.515625,1.9194660186767578
21-01-1992,2.515625,2.53125,578400,2.546875,2.515625,1.9194660186767578
22-01-1992,2.484375,2.515625,300000,2.515625,2.484375,1.8956209421157837
23-01-1992,2.453125,2.46875,313600,2.5,2.453125,1.8717782497406006
24-01-1992,2.3125,2.453125,1104800,2.453125,2.3125,1.7644779682159424
27-01-1992,2.25,2.296875,292800,2.296875,2.265625,1.7287124395370483
28-01-1992,2.1875,2.265625,2736800,2.265625,2.1875,1.6691008806228638
29-01-1992,2.15625,2.203125,463200,2.25,2.203125,1.6810224056243896
30-01-1992,2.140625,2.140625,405600,2.21875,2.1875,1.6691008806228638
31-01-1992,2.1875,2.203125,714400,2.296875,2.25,1.7167890071868896
03-02-1992,2.21875,2.265625,96800,2.265625,2.234375,1.7048671245574951
04-02-1992,2.1875,2.21875,355200,2.234375,2.203125,1.6810224056243896
05-02-1992,2.15625,2.203125,604000,2.203125,2.171875,1.6571794748306274
06-02-1992,2.09375,2.1875,492800,2.1875,2.09375,1.5975672006607056
07-02-1992,2.078125,2.078125,704000,2.21875,2.21875,1.692944884300232
10-02-1992,2.234375,2.234375,782400,2.34375,2.328125,1.776399850845337
11-02-1992,2.3125,2.328125,241600,2.34375,2.3125,1.7644779682159424
12-02-1992,2.28125,2.3125,446400,2.328125,2.3125,1.7644779682159424
13-02-1992,2.296875,2.3125,161600,2.3125,2.296875,1.7525560855865479
14-02-1992,2.28125,2.296875,190400,2.328125,2.328125,1.776399850845337
18-02-1992,2.28125,2.3125,504800,2.3125,2.296875,1.7525560855865479
19-02-1992,2.265625,2.28125,20800,2.28125,2.265625,1.7287124395370483
20-02-1992,2.265625,2.265625,260800,2.296875,2.296875,1.7525560855865479
21-02-1992,2.296875,2.296875,311200,2.328125,2.3125,1.7644779682159424
24-02-1992,2.3125,2.328125,249600,2.34375,2.3125,1.7644779682159424
25-02-1992,2.28125,2.3125,144000,2.3125,2.28125,1.7406333684921265
26-02-1992,2.25,2.265625,835200,2.265625,2.265625,1.7287124395370483
27-02-1992,2.25,2.25,67200,2.296875,2.265625,1.7287124395370483
28-02-1992,2.234375,2.234375,321600,2.265625,2.234375,1.7048671245574951
02-03-1992,2.25,2.25,588800,2.296875,2.25,1.7167890071868896
03-03-1992,2.25,2.265625,608800,2.28125,2.25,1.7167890071868896
04-03-1992,2.234375,2.234375,488000,2.25,2.25,1.7167890071868896
05-03-1992,2.265625,2.265625,607200,2.28125,2.28125,1.7406333684921265
06-03-1992,2.28125,2.28125,404800,2.296875,2.28125,1.7406333684921265
09-03-1992,2.28125,2.28125,348000,2.328125,2.328125,1.776399850845337
10-03-1992,2.328125,2.328125,348000,2.40625,2.390625,1.8240880966186523
11-03-1992,2.390625,2.40625,376000,2.40625,2.40625,1.8360120058059692
12-03-1992,2.40625,2.4375,347200,2.4375,2.40625,1.8360120058059692
13-03-1992,2.421875,2.4375,138400,2.46875,2.46875,1.8836989402770996
16-03-1992,2.40625,2.5,122400,2.5,2.40625,1.8360120058059692
17-03-1992,2.421875,2.4375,569600,2.4375,2.4375,1.8598558902740479
18-03-1992,2.40625,2.421875,46400,2.421875,2.40625,1.8360120058059692
19-03-1992,2.375,2.4375,394400,2.4375,2.40625,1.8360120058059692
20-03-1992,2.453125,2.46875,232000,2.484375,2.46875,1.8836989402770996
23-03-1992,2.5,2.5,545600,2.546875,2.5,1.9075441360473633
24-03-1992,2.5,2.5,618400,2.578125,2.5625,1.9552325010299683
25-03-1992,2.5625,2.578125,116800,2.578125,2.578125,1.9671543836593628
26-03-1992,2.609375,2.609375,959200,2.734375,2.6875,2.0506093502044678
27-03-1992,2.609375,2.625,236800,2.65625,2.625,2.0029215812683105
30-03-1992,2.609375,2.625,324800,2.625,2.625,2.0029215812683105
31-03-1992,2.640625,2.640625,307200,2.65625,2.65625,2.0267651081085205
01-04-1992,2.609375,2.65625,172800,2.65625,2.609375,1.9910008907318115
02-04-1992,2.578125,2.609375,878400,2.609375,2.59375,1.979075312614441
03-04-1992,2.546875,2.5625,109600,2.5625,2.5625,1.9552325010299683
06-04-1992,2.578125,2.578125,336000,2.734375,2.734375,2.086376428604126
07-04-1992,2.6875,2.734375,612000,2.734375,2.6875,2.088804006576538
08-04-1992,2.625,2.671875,771200,2.671875,2.625,2.0402276515960693
09-04-1992,2.609375,2.609375,170400,2.75,2.75,2.142481565475464
10-04-1992,2.734375,2.734375,213600,2.75,2.734375,2.130309581756592
13-04-1992,2.75,2.765625,141600,2.78125,2.765625,2.1546554565429688
14-04-1992,2.78125,2.78125,228000,2.8125,2.8125,2.191175699234009
15-04-1992,2.8125,2.8125,312000,2.828125,2.828125,2.2033493518829346
16-04-1992,2.8125,2.8125,39200,2.828125,2.8125,2.191175699234009
20-04-1992,2.8125,2.8125,245600,2.890625,2.890625,2.252040147781372
21-04-1992,2.875,2.921875,337600,2.921875,2.90625,2.264214277267456
22-04-1992,2.875,2.890625,8800,2.890625,2.875,2.239868640899658
23-04-1992,2.84375,2.875,1366400,2.984375,2.875,2.239868640899658
24-04-1992,3.0,3.03125,687200,3.171875,3.0,2.3372533321380615
27-04-1992,3.03125,3.0625,511200,3.09375,3.046875,2.3737740516662598
28-04-1992,3.015625,3.046875,234400,3.046875,3.03125,2.3616011142730713
29-04-1992,3.03125,3.046875,237600,3.046875,3.03125,2.3616011142730713
30-04-1992,3.03125,3.046875,1008800,3.0625,3.046875,2.3737740516662598
01-05-1992,3.03125,3.03125,146400,3.046875,3.046875,2.3737740516662598
04-05-1992,3.0625,3.0625,251200,3.078125,3.0625,2.3859472274780273
05-05-1992,3.046875,3.046875,532000,3.078125,3.078125,2.3981196880340576
06-05-1992,3.015625,3.078125,792800,3.078125,3.015625,2.3494255542755127
07-05-1992,2.96875,3.015625,61600,3.015625,2.96875,2.3129072189331055
08-05-1992,2.9375,3.0,42400,3.0,2.953125,2.300733804702759
11-05-1992,2.90625,2.953125,91200,2.953125,2.90625,2.264214277267456
12-05-1992,2.75,2.921875,1191200,2.921875,2.796875,2.1790013313293457
13-05-1992,2.765625,2.796875,261600,2.796875,2.765625,2.1546554565429688
14-05-1992,2.6875,2.765625,1236800,2.84375,2.84375,2.2155206203460693
15-05-1992,2.8125,2.828125,509600,2.90625,2.890625,2.252040147781372
18-05-1992,2.90625,2.90625,431200,3.015625,3.0,2.3372533321380615
19-05-1992,2.953125,3.0,572000,3.046875,3.046875,2.3737740516662598
20-05-1992,3.0625,3.0625,200800,3.09375,3.09375,2.410292387008667
21-05-1992,3.078125,3.078125,946400,3.15625,3.09375,2.410292387008667
22-05-1992,3.078125,3.09375,230400,3.15625,3.140625,2.4468131065368652
26-05-1992,3.125,3.140625,1300800,3.1875,3.1875,2.4833321571350098
27-05-1992,3.125,3.203125,1122400,3.25,3.125,2.4346394538879395
28-05-1992,3.078125,3.140625,627200,3.140625,3.125,2.4346394538879395
29-05-1992,3.078125,3.125,368800,3.125,3.09375,2.410292387008667
01-06-1992,3.078125,3.078125,348800,3.171875,3.171875,2.471158742904663
02-06-1992,3.125,3.140625,108000,3.15625,3.140625,2.4468131065368652
03-06-1992,3.125,3.15625,1278400,3.1875,3.15625,2.4589860439300537
04-06-1992,3.125,3.125,1169600,3.140625,3.140625,2.4468131065368652
05-06-1992,3.140625,3.15625,816800,3.1875,3.1875,2.4833321571350098
08-06-1992,3.21875,3.21875,1822400,3.375,3.3125,2.580716848373413
09-06-1992,3.28125,3.3125,2077600,3.34375,3.3125,2.580716848373413
10-06-1992,3.21875,3.3125,778400,3.3125,3.28125,2.5563714504241943
11-06-1992,3.28125,3.28125,438400,3.40625,3.40625,2.6537563800811768
12-06-1992,3.34375,3.375,2042400,3.375,3.34375,2.6050655841827393
15-06-1992,3.296875,3.328125,2438400,3.328125,3.3125,2.580716848373413
16-06-1992,3.296875,3.328125,660800,3.328125,3.296875,2.568544626235962
17-06-1992,3.21875,3.3125,673600,3.3125,3.234375,2.5198521614074707
18-06-1992,3.21875,3.21875,948800,3.265625,3.234375,2.5198521614074707
19-06-1992,3.234375,3.25,417600,3.265625,3.234375,2.5198521614074707
22-06-1992,3.203125,3.203125,568000,3.21875,3.203125,2.4955053329467773
23-06-1992,3.203125,3.203125,518400,3.21875,3.203125,2.4955053329467773
24-06-1992,3.171875,3.21875,224000,3.21875,3.21875,2.507678270339966
25-06-1992,3.125,3.21875,307200,3.21875,3.125,2.4346394538879395
26-06-1992,3.109375,3.125,629600,3.140625,3.140625,2.4468131065368652
29-06-1992,3.125,3.125,1169600,3.1875,3.171875,2.471158742904663
30-06-1992,3.15625,3.1875,1156800,3.1875,3.1875,2.4833321571350098
01-07-1992,3.203125,3.21875,694400,3.25,3.25,2.5320255756378174
02-07-1992,3.25,3.28125,2007200,3.296875,3.28125,2.5563714504241943
06-07-1992,3.296875,3.3125,771200,3.328125,3.3125,2.580716848373413
07-07-1992,3.3125,3.3125,655200,3.359375,3.328125,2.5928897857666016
08-07-1992,3.3125,3.328125,480800,3.34375,3.328125,2.5928897857666016
09-07-1992,3.328125,3.34375,424000,3.375,3.359375,2.6221611499786377
10-07-1992,3.328125,3.390625,568800,3.390625,3.328125,2.5977697372436523
13-07-1992,3.328125,3.328125,624800,3.359375,3.359375,2.6221611499786377
14-07-1992,3.390625,3.390625,627200,3.625,3.578125,2.7929086685180664
15-07-1992,3.515625,3.59375,465600,3.609375,3.53125,2.756319522857666
16-07-1992,3.390625,3.5,143200,3.5,3.421875,2.670945644378662
17-07-1992,3.421875,3.4375,45600,3.453125,3.4375,2.6831424236297607
20-07-1992,3.390625,3.4375,645600,3.453125,3.390625,2.6465535163879395
21-07-1992,3.390625,3.390625,224000,3.421875,3.40625,2.65874981880188
22-07-1992,3.40625,3.40625,235200,3.484375,3.484375,2.7197301387786865
23-07-1992,3.46875,3.5,112000,3.515625,3.5,2.7319271564483643
24-07-1992,3.5,3.5,329600,3.609375,3.609375,2.8172988891601562
27-07-1992,3.5625,3.609375,66400,3.609375,3.59375,2.805103063583374
28-07-1992,3.53125,3.59375,91200,3.59375,3.5625,2.780709981918335
29-07-1992,3.546875,3.5625,84800,3.578125,3.578125,2.7929086685180664
30-07-1992,3.5625,3.5625,565600,3.640625,3.640625,2.841691732406616
31-07-1992,3.625,3.640625,500800,3.65625,3.640625,2.841691732406616
03-08-1992,3.625,3.625,492000,3.703125,3.703125,2.8904755115509033
04-08-1992,3.6875,3.6875,398400,3.71875,3.71875,2.9026718139648438
05-08-1992,3.375,3.59375,268800,3.59375,3.40625,2.65874981880188
06-08-1992,3.171875,3.25,1166400,3.265625,3.25,2.536790132522583
07-08-1992,3.25,3.25,996000,3.515625,3.515625,2.7441234588623047
10-08-1992,3.5,3.515625,88000,3.5625,3.546875,2.768514633178711
11-08-1992,3.546875,3.546875,2608000,3.5625,3.546875,2.768514633178711
12-08-1992,3.5625,3.5625,92800,3.59375,3.59375,2.805103063583374
13-08-1992,3.609375,3.625,684800,3.734375,3.734375,2.914867401123047
14-08-1992,3.734375,3.78125,1344000,3.84375,3.75,2.9270639419555664
17-08-1992,3.671875,3.71875,1498400,3.71875,3.6875,2.8782806396484375
18-08-1992,3.578125,3.671875,823200,3.6875,3.59375,2.805103063583374
19-08-1992,3.5,3.5,844800,3.6875,3.5625,2.780709981918335
20-08-1992,3.5625,3.625,7611200,3.640625,3.59375,2.805103063583374
21-08-1992,3.59375,3.609375,1631200,3.640625,3.59375,2.805103063583374
24-08-1992,3.578125,3.578125,1412000,3.609375,3.578125,2.7929086685180664
25-08-1992,3.578125,3.578125,1002400,3.71875,3.671875,2.8660833835601807
26-08-1992,3.6875,3.6875,1988000,3.75,3.75,2.9270639419555664
27-08-1992,3.71875,3.734375,872800,3.796875,3.78125,2.9514553546905518
28-08-1992,3.8125,3.8125,1732800,3.9375,3.9375,3.0734176635742188
31-08-1992,3.84375,3.90625,1392800,3.984375,3.875,3.024631977081299
01-09-1992,3.859375,3.875,740000,3.9375,3.90625,3.049024820327759
02-09-1992,3.875,3.9375,458400,3.953125,3.890625,3.0368294715881348
03-09-1992,3.890625,3.90625,617600,3.921875,3.921875,3.0612213611602783
04-09-1992,3.921875,3.921875,190400,3.96875,3.953125,3.0856127738952637
08-09-1992,3.953125,3.953125,1150400,4.09375,4.078125,3.183182716369629
09-09-1992,4.0625,4.078125,660000,4.09375,4.09375,3.1953773498535156
10-09-1992,4.0625,4.09375,809600,4.109375,4.078125,3.183182716369629
11-09-1992,4.0625,4.078125,549600,4.109375,4.109375,3.2075746059417725
14-09-1992,4.109375,4.140625,684000,4.171875,4.125,3.219770908355713
15-09-1992,4.109375,4.125,557600,4.140625,4.109375,3.2075746059417725
16-09-1992,4.09375,4.109375,723200,4.171875,4.125,3.219770908355713
17-09-1992,4.125,4.125,565600,4.28125,4.21875,3.2929470539093018
18-09-1992,4.1875,4.1875,668000,4.3125,4.3125,3.3661234378814697
21-09-1992,4.328125,4.328125,808000,4.34375,4.34375,3.3905160427093506
22-09-1992,4.296875,4.3125,662400,4.375,4.359375,3.40271258354187
23-09-1992,4.359375,4.375,898400,4.46875,4.375,3.414907693862915
24-09-1992,4.390625,4.390625,1256800,4.484375,4.46875,3.488084554672241
25-09-1992,4.203125,4.421875,1837600,4.4375,4.25,3.3173396587371826
28-09-1992,4.109375,4.25,1749600,4.25,4.125,3.219770908355713
29-09-1992,4.171875,4.203125,276800,4.234375,4.234375,3.305145025253296
30-09-1992,4.15625,4.21875,330400,4.234375,4.15625,3.2441625595092773
01-10-1992,4.03125,4.140625,378400,4.140625,4.03125,3.146592617034912
02-10-1992,4.015625,4.046875,772800,4.078125,4.046875,3.1587905883789062
05-10-1992,3.953125,4.046875,312000,4.046875,3.96875,3.097809314727783
06-10-1992,3.90625,3.96875,885600,3.96875,3.9375,3.0734176635742188
07-10-1992,3.953125,3.953125,649600,4.015625,3.984375,3.110006093978882
08-10-1992,3.96875,3.96875,266400,4.0625,4.0,3.1271071434020996
09-10-1992,3.90625,3.96875,112000,4.03125,3.9375,3.0782454013824463
12-10-1992,3.9375,3.9375,351200,3.953125,3.953125,3.090461015701294
13-10-1992,3.890625,3.9375,412000,3.953125,3.9375,3.0782454013824463
14-10-1992,3.921875,3.9375,341600,3.953125,3.9375,3.0782454013824463
15-10-1992,3.90625,3.9375,205600,3.9375,3.90625,3.0538158416748047
16-10-1992,3.921875,3.921875,1151200,4.078125,4.0625,3.17596697807312
19-10-1992,4.0625,4.0625,756000,4.3125,4.28125,3.346980571746826
20-10-1992,4.203125,4.265625,209600,4.265625,4.21875,3.2981204986572266
21-10-1992,4.140625,4.203125,104800,4.203125,4.15625,3.2492594718933105
22-10-1992,3.953125,4.140625,365600,4.140625,3.953125,3.090461015701294
23-10-1992,3.9375,3.96875,101600,3.96875,3.953125,3.090461015701294
26-10-1992,3.953125,3.953125,396800,4.015625,4.0,3.1271071434020996
27-10-1992,3.8125,3.984375,318400,3.984375,3.859375,3.01716947555542
28-10-1992,3.71875,3.859375,920800,3.859375,3.828125,2.9927377700805664
29-10-1992,3.828125,3.828125,348000,3.90625,3.84375,3.004955530166626
30-10-1992,3.8125,3.875,143200,3.875,3.8125,2.980523109436035
02-11-1992,3.828125,3.828125,156800,3.875,3.875,3.0293843746185303
03-11-1992,3.75,3.875,296800,3.875,3.75,2.9316632747650146
04-11-1992,3.65625,3.765625,464000,3.78125,3.65625,2.8583710193634033
05-11-1992,3.46875,3.625,1245600,3.625,3.484375,2.7240030765533447
06-11-1992,3.53125,3.53125,1823200,3.671875,3.65625,2.8583710193634033
09-11-1992,3.5,3.625,1322400,3.65625,3.546875,2.7728638648986816
10-11-1992,3.5625,3.5625,1669600,3.625,3.625,2.833940267562866
11-11-1992,3.5625,3.625,551200,3.625,3.5625,2.7850804328918457
12-11-1992,3.5625,3.625,1320800,3.640625,3.578125,2.797294855117798
13-11-1992,3.59375,3.609375,324000,3.640625,3.625,2.833940267562866
16-11-1992,3.609375,3.609375,257600,3.65625,3.65625,2.8583710193634033
17-11-1992,3.625,3.625,304000,3.640625,3.625,2.833940267562866
18-11-1992,3.625,3.625,693600,3.640625,3.640625,2.8461568355560303
19-11-1992,3.46875,3.609375,821600,3.640625,3.5,2.7362184524536133
20-11-1992,3.53125,3.53125,536800,3.59375,3.59375,2.80950927734375
23-11-1992,3.5625,3.5625,660000,3.671875,3.625,2.833940267562866
24-11-1992,3.578125,3.609375,503200,3.609375,3.59375,2.80950927734375
25-11-1992,3.578125,3.578125,96000,3.609375,3.59375,2.80950927734375
27-11-1992,3.578125,3.59375,230400,3.625,3.625,2.833940267562866
30-11-1992,3.53125,3.625,539200,3.625,3.546875,2.7728638648986816
01-12-1992,3.53125,3.546875,1116800,3.546875,3.53125,2.760648727416992
02-12-1992,3.53125,3.53125,721600,3.578125,3.578125,2.797294855117798
03-12-1992,3.421875,3.5625,1191200,3.5625,3.4375,2.687357187271118
04-12-1992,3.421875,3.4375,1249600,3.5,3.5,2.7362184524536133
07-12-1992,3.484375,3.484375,167200,3.546875,3.5,2.7362184524536133
08-12-1992,3.453125,3.5,580000,3.515625,3.484375,2.7240030765533447
09-12-1992,3.484375,3.5,374400,3.546875,3.53125,2.760648727416992
10-12-1992,3.484375,3.546875,1601600,3.609375,3.609375,2.8217244148254395
11-12-1992,3.65625,3.65625,151200,3.703125,3.671875,2.870586395263672
14-12-1992,3.609375,3.671875,920000,3.671875,3.65625,2.8583710193634033
15-12-1992,3.609375,3.640625,406400,3.640625,3.625,2.833940267562866
16-12-1992,3.59375,3.609375,402400,3.625,3.59375,2.80950927734375
17-12-1992,3.5625,3.609375,52800,3.609375,3.5625,2.7850804328918457
18-12-1992,3.578125,3.59375,295200,3.59375,3.59375,2.80950927734375
21-12-1992,3.546875,3.578125,488000,3.578125,3.546875,2.7728638648986816
22-12-1992,3.53125,3.5625,960800,3.5625,3.546875,2.7728638648986816
23-12-1992,3.515625,3.546875,1008000,3.546875,3.515625,2.7484350204467773
24-12-1992,3.53125,3.546875,655200,3.59375,3.59375,2.80950927734375
28-12-1992,3.53125,3.578125,97600,3.578125,3.546875,2.7728638648986816
29-12-1992,3.53125,3.546875,596000,3.59375,3.5625,2.7850804328918457
30-12-1992,3.546875,3.578125,639200,3.578125,3.546875,2.7728638648986816
31-12-1992,3.5625,3.5625,376000,3.6875,3.671875,2.870586395263672
04-01-1993,3.609375,3.6875,597600,3.71875,3.609375,2.8217244148254395
05-01-1993,3.578125,3.609375,715200,3.6875,3.6875,2.882800579071045
06-01-1993,3.59375,3.6875,928800,3.6875,3.609375,2.8217244148254395
07-01-1993,3.5625,3.609375,333600,3.609375,3.578125,2.797294855117798
08-01-1993,3.46875,3.578125,1617600,3.578125,3.46875,2.7117881774902344
11-01-1993,3.375,3.484375,410400,3.484375,3.390625,2.656456470489502
12-01-1993,3.359375,3.390625,269600,3.40625,3.40625,2.6686978340148926
13-01-1993,3.359375,3.40625,826400,3.484375,3.46875,2.7176642417907715
14-01-1993,3.34375,3.4375,619200,3.453125,3.34375,2.619730234146118
15-01-1993,3.359375,3.375,1232800,3.421875,3.390625,2.656456470489502
18-01-1993,3.359375,3.390625,460000,3.390625,3.375,2.6442136764526367
19-01-1993,3.359375,3.359375,1157600,3.484375,3.453125,2.7054219245910645
20-01-1993,3.4375,3.453125,132800,3.484375,3.46875,2.7176642417907715
21-01-1993,3.4375,3.4375,272800,3.5,3.5,2.742147445678711
22-01-1993,3.5,3.515625,540800,3.59375,3.59375,2.8155972957611084
25-01-1993,3.578125,3.578125,969600,3.703125,3.6875,2.889047145843506
26-01-1993,3.78125,3.8125,1224000,3.875,3.78125,2.962498903274536
27-01-1993,3.703125,3.734375,636000,3.765625,3.75,2.938016414642334
28-01-1993,3.75,3.765625,773600,3.90625,3.90625,3.060431718826294
29-01-1993,3.890625,3.90625,492800,4.0,3.96875,3.1093997955322266
01-02-1993,4.0,4.0,1876800,4.078125,4.0625,3.1828479766845703
02-02-1993,4.046875,4.046875,1044000,4.09375,4.09375,3.2073326110839844
03-02-1993,4.09375,4.09375,1448000,4.359375,4.296875,3.3664751052856445
04-02-1993,4.328125,4.328125,1330400,4.4375,4.4375,3.476649761199951
05-02-1993,4.4375,4.4375,1606400,4.515625,4.5,3.525618314743042
08-02-1993,4.46875,4.5,1975200,4.5,4.5,3.525618314743042
09-02-1993,4.40625,4.5,756000,4.5,4.421875,3.4644107818603516
10-02-1993,4.359375,4.421875,800000,4.453125,4.375,3.4276838302612305
11-02-1993,4.359375,4.359375,971200,4.5,4.484375,3.513376235961914
12-02-1993,4.46875,4.484375,932000,4.484375,4.484375,3.513376235961914
16-02-1993,4.34375,4.46875,292800,4.46875,4.34375,3.4032020568847656
17-02-1993,4.34375,4.359375,632800,4.40625,4.390625,3.4399266242980957
18-02-1993,4.421875,4.421875,604800,4.484375,4.4375,3.476649761199951
19-02-1993,4.421875,4.4375,3408800,4.515625,4.5,3.525618314743042
22-02-1993,4.5,4.5,1140000,4.609375,4.5625,3.5745856761932373
23-02-1993,4.5,4.59375,664000,4.59375,4.546875,3.562344789505005
24-02-1993,4.46875,4.515625,499200,4.515625,4.484375,3.513376235961914
25-02-1993,4.359375,4.484375,259200,4.484375,4.359375,3.41544246673584
26-02-1993,4.359375,4.390625,128000,4.421875,4.40625,3.4521658420562744
01-03-1993,4.421875,4.4375,1396000,4.53125,4.4375,3.476649761199951
02-03-1993,4.4375,4.46875,332800,4.484375,4.453125,3.488893747329712
03-03-1993,4.46875,4.46875,4088800,4.84375,4.78125,3.7459685802459717
04-03-1993,4.640625,4.75,913600,4.78125,4.734375,3.7092444896698
05-03-1993,4.6875,4.71875,335200,4.734375,4.6875,3.672518253326416
08-03-1993,4.703125,4.703125,472000,4.796875,4.78125,3.7459685802459717
09-03-1993,4.75,4.796875,324000,4.796875,4.78125,3.7459685802459717
10-03-1993,4.734375,4.78125,199200,4.8125,4.8125,3.770453691482544
11-03-1993,4.796875,4.8125,213600,4.921875,4.890625,3.831660509109497
12-03-1993,4.796875,4.921875,702400,4.921875,4.84375,3.7949366569519043
15-03-1993,4.84375,4.84375,209600,4.875,4.875,3.819418430328369
16-03-1993,4.84375,4.859375,316800,4.875,4.859375,3.8071787357330322
17-03-1993,4.859375,4.875,136800,4.984375,4.984375,3.905113458633423
18-03-1993,4.921875,4.96875,444000,5.0,5.0,3.9173550605773926
19-03-1993,4.96875,4.984375,300800,5.0,4.96875,3.8928701877593994
22-03-1993,4.96875,4.984375,640800,5.0,4.984375,3.905113458633423
23-03-1993,4.96875,5.015625,100800,5.015625,4.96875,3.8928701877593994
24-03-1993,4.96875,4.96875,574400,5.078125,4.96875,3.8928701877593994
25-03-1993,4.84375,4.90625,1020000,4.921875,4.84375,3.7949366569519043
26-03-1993,4.8125,4.84375,753600,4.921875,4.90625,3.843904495239258
29-03-1993,4.921875,4.921875,589600,4.984375,4.984375,3.905113458633423
30-03-1993,5.0,5.0,663200,5.03125,5.03125,3.941836357116699
31-03-1993,4.96875,5.03125,558400,5.03125,5.015625,3.929593801498413
01-04-1993,4.984375,5.03125,537600,5.03125,5.0,3.9173550605773926
02-04-1993,4.859375,4.953125,240800,4.953125,4.890625,3.831660509109497
05-04-1993,4.875,4.90625,292800,4.90625,4.90625,3.843904495239258
06-04-1993,4.875,4.90625,604800,4.90625,4.875,3.819418430328369
07-04-1993,4.8125,4.84375,860000,4.875,4.875,3.819418430328369
08-04-1993,4.859375,4.859375,24000,4.875,4.875,3.825303077697754
12-04-1993,4.859375,4.859375,325600,4.96875,4.96875,3.8988685607910156
13-04-1993,4.84375,4.96875,1076800,5.03125,4.875,3.825303077697754
14-04-1993,4.84375,4.890625,447200,4.890625,4.84375,3.80078387260437
15-04-1993,4.8125,4.875,231200,4.921875,4.8125,3.7762644290924072
16-04-1993,4.796875,4.828125,356800,4.84375,4.84375,3.80078387260437
19-04-1993,4.828125,4.828125,173600,4.890625,4.875,3.825303077697754
20-04-1993,4.90625,4.90625,1133600,5.0625,4.984375,3.911130428314209
21-04-1993,4.875,5.015625,185600,5.015625,4.875,3.825303077697754
22-04-1993,4.671875,4.84375,335200,4.84375,4.671875,3.6659178733825684
23-04-1993,4.46875,4.671875,786400,4.671875,4.5,3.531050682067871
26-04-1993,4.515625,4.53125,367200,4.640625,4.625,3.6291356086730957
27-04-1993,4.625,4.65625,108000,4.65625,4.640625,3.6413965225219727
28-04-1993,4.625,4.625,189600,4.640625,4.640625,3.6413965225219727
29-04-1993,4.625,4.65625,383200,4.75,4.75,3.727219820022583
30-04-1993,4.75,4.75,779200,4.96875,4.921875,3.862086772918701
03-05-1993,4.953125,4.953125,249600,4.984375,4.953125,3.8866093158721924
04-05-1993,4.90625,4.921875,1332800,4.953125,4.921875,3.862086772918701
05-05-1993,4.921875,4.921875,65600,4.9375,4.921875,3.862086772918701
06-05-1993,4.921875,4.921875,664800,5.0,4.9375,3.8743467330932617
07-05-1993,4.90625,4.921875,186400,4.96875,4.921875,3.862086772918701
10-05-1993,4.8125,4.9375,828000,4.9375,4.8125,3.7762644290924072
11-05-1993,4.78125,4.78125,1120800,4.953125,4.9375,3.8743467330932617
12-05-1993,4.90625,4.9375,852000,4.984375,4.953125,3.8866093158721924
13-05-1993,4.90625,4.90625,702400,5.09375,5.0625,3.9724316596984863
14-05-1993,5.0625,5.0625,931200,5.265625,5.171875,4.05825662612915
17-05-1993,5.15625,5.171875,390400,5.203125,5.203125,4.0827765464782715
18-05-1993,5.203125,5.203125,340800,5.328125,5.296875,4.156341075897217
19-05-1993,5.1875,5.3125,412800,5.3125,5.234375,4.107300281524658
20-05-1993,5.21875,5.21875,216000,5.25,5.234375,4.107300281524658
21-05-1993,5.203125,5.234375,400000,5.234375,5.21875,4.095037937164307
24-05-1993,5.21875,5.25,496000,5.25,5.234375,4.107300281524658
25-05-1993,5.171875,5.1875,400800,5.25,5.1875,4.070514678955078
26-05-1993,5.15625,5.1875,188000,5.203125,5.203125,4.0827765464782715
27-05-1993,5.203125,5.203125,511200,5.3125,5.3125,4.1686015129089355
28-05-1993,5.28125,5.296875,473600,5.3125,5.3125,4.1686015129089355
01-06-1993,5.328125,5.34375,619200,5.4375,5.40625,4.242165565490723
02-06-1993,5.40625,5.40625,522400,5.625,5.5625,4.364769458770752
03-06-1993,5.484375,5.5625,403200,5.5625,5.515625,4.327988147735596
04-06-1993,5.484375,5.5,889600,5.515625,5.5,4.315728187561035
07-06-1993,5.484375,5.5,482400,5.515625,5.5,4.315728187561035
08-06-1993,5.421875,5.484375,277600,5.484375,5.4375,4.266687393188477
09-06-1993,5.40625,5.40625,262400,5.5,5.5,4.315728187561035
10-06-1993,5.4375,5.484375,779200,5.484375,5.4375,4.266687393188477
11-06-1993,5.234375,5.40625,606400,5.40625,5.234375,4.107300281524658
14-06-1993,5.125,5.21875,763200,5.21875,5.125,4.0214738845825195
15-06-1993,5.125,5.125,288800,5.15625,5.125,4.0214738845825195
16-06-1993,5.140625,5.140625,219200,5.203125,5.203125,4.0827765464782715
17-06-1993,5.21875,5.21875,193600,5.328125,5.25,4.119561195373535
18-06-1993,5.265625,5.28125,224800,5.296875,5.265625,4.1318182945251465
21-06-1993,5.28125,5.28125,292800,5.359375,5.34375,4.193122863769531
22-06-1993,5.265625,5.34375,1112000,5.34375,5.265625,4.1318182945251465
23-06-1993,5.265625,5.265625,2466400,5.296875,5.296875,4.156341075897217
24-06-1993,5.0625,5.296875,637600,5.296875,5.125,4.0214738845825195
25-06-1993,5.109375,5.125,36000,5.125,5.125,4.0214738845825195
28-06-1993,5.125,5.125,204800,5.140625,5.140625,4.033733367919922
29-06-1993,4.984375,5.109375,648000,5.125,5.046875,3.960171937942505
30-06-1993,5.03125,5.0625,552000,5.09375,5.09375,3.9969515800476074
01-07-1993,5.015625,5.078125,376800,5.078125,5.046875,3.960171937942505
02-07-1993,5.015625,5.0625,100000,5.0625,5.046875,3.960171937942505
06-07-1993,5.0,5.046875,437600,5.09375,5.0,3.923389196395874
07-07-1993,4.96875,4.96875,1369600,5.078125,5.078125,3.9846935272216797
08-07-1993,5.078125,5.078125,955200,5.1875,5.1875,4.070514678955078
09-07-1993,5.171875,5.171875,1352000,5.25,5.25,4.125525951385498
12-07-1993,5.28125,5.28125,900000,5.34375,5.3125,4.174639701843262
13-07-1993,5.28125,5.3125,100000,5.3125,5.28125,4.150079727172852
14-07-1993,5.28125,5.28125,538400,5.3125,5.28125,4.150079727172852
15-07-1993,5.21875,5.3125,338400,5.3125,5.25,4.125525951385498
16-07-1993,5.234375,5.25,147200,5.265625,5.25,4.125525951385498
19-07-1993,5.25,5.296875,417600,5.296875,5.28125,4.150079727172852
20-07-1993,5.25,5.25,713600,5.3125,5.3125,4.174639701843262
21-07-1993,5.3125,5.3125,395200,5.34375,5.3125,4.174639701843262
22-07-1993,5.28125,5.3125,314400,5.3125,5.296875,4.162359714508057
23-07-1993,5.25,5.296875,341600,5.3125,5.3125,4.174639701843262
26-07-1993,5.296875,5.34375,196000,5.34375,5.296875,4.162359714508057
27-07-1993,5.21875,5.265625,191200,5.28125,5.25,4.125525951385498
28-07-1993,5.234375,5.25,356800,5.296875,5.265625,4.1378021240234375
29-07-1993,5.25,5.265625,98400,5.3125,5.296875,4.162359714508057
30-07-1993,5.3125,5.3125,57600,5.328125,5.328125,4.186915874481201
02-08-1993,5.3125,5.328125,1029600,5.46875,5.46875,4.297419548034668
03-08-1993,5.484375,5.484375,356000,5.578125,5.5625,4.371091365814209
04-08-1993,5.546875,5.546875,400000,5.65625,5.625,4.4202046394348145
05-08-1993,5.609375,5.609375,56000,5.640625,5.625,4.4202046394348145
06-08-1993,5.578125,5.625,348800,5.625,5.59375,4.395648956298828
09-08-1993,5.609375,5.609375,344800,5.6875,5.6875,4.469318866729736
10-08-1993,5.6875,5.6875,632800,5.75,5.75,4.518430709838867
11-08-1993,5.78125,5.78125,784800,6.0,6.0,4.714885711669922
12-08-1993,5.984375,6.0,1103200,6.21875,6.015625,4.727162837982178
13-08-1993,5.9375,6.03125,226400,6.03125,5.9375,4.665771961212158
16-08-1993,5.9375,5.9375,448000,5.984375,5.984375,4.702607154846191
17-08-1993,6.0625,6.0625,640000,6.25,6.25,4.911338806152344
18-08-1993,6.234375,6.234375,805600,6.484375,6.421875,5.046398162841797
19-08-1993,6.3125,6.4375,424000,6.46875,6.3125,4.960450649261475
20-08-1993,6.3125,6.3125,914400,6.453125,6.453125,5.070956230163574
23-08-1993,6.453125,6.46875,964800,6.703125,6.703125,5.267411231994629
24-08-1993,6.53125,6.703125,704000,6.703125,6.5625,5.156904697418213
25-08-1993,6.4375,6.5625,753600,6.578125,6.453125,5.070956230163574
26-08-1993,6.25,6.453125,817600,6.453125,6.296875,4.948172092437744
27-08-1993,6.03125,6.28125,627200,6.28125,6.125,4.813110828399658
30-08-1993,6.109375,6.125,529600,6.25,6.21875,4.886780261993408
31-08-1993,6.171875,6.234375,888000,6.328125,6.28125,4.935895919799805
01-09-1993,6.28125,6.28125,388800,6.390625,6.375,5.009564399719238
02-09-1993,6.28125,6.375,286400,6.375,6.28125,4.935895919799805
03-09-1993,6.28125,6.28125,135200,6.328125,6.296875,4.948172092437744
07-09-1993,6.125,6.296875,236800,6.328125,6.125,4.813110828399658
08-09-1993,5.953125,6.125,388800,6.125,5.953125,4.678051948547363
09-09-1993,5.921875,5.953125,533600,5.984375,5.96875,4.690327167510986
10-09-1993,5.953125,5.96875,121600,5.984375,5.984375,4.702607154846191
13-09-1993,5.921875,5.984375,472800,6.03125,5.921875,4.653493404388428
14-09-1993,5.90625,5.953125,633600,5.96875,5.9375,4.665771961212158
15-09-1993,5.921875,5.9375,994400,6.046875,6.0,4.714885711669922
16-09-1993,6.0,6.0,152800,6.03125,6.0,4.714885711669922
17-09-1993,5.890625,5.96875,127200,5.96875,5.9375,4.665771961212158
20-09-1993,5.9375,5.9375,248000,5.96875,5.96875,4.690327167510986
21-09-1993,5.96875,5.96875,218400,6.03125,6.015625,4.727162837982178
22-09-1993,5.96875,6.0,99200,6.03125,5.96875,4.690327167510986
23-09-1993,5.953125,5.984375,232800,5.984375,5.984375,4.702607154846191
24-09-1993,5.953125,5.96875,357600,6.0,5.96875,4.690327167510986
27-09-1993,5.953125,5.953125,441600,6.0,5.984375,4.702607154846191
28-09-1993,5.921875,5.984375,326400,5.984375,5.9375,4.665771961212158
29-09-1993,5.9375,5.9375,1200800,6.453125,6.453125,5.070956230163574
30-09-1993,6.453125,6.453125,755200,6.625,6.625,5.206020355224609
01-10-1993,6.59375,6.59375,599200,6.71875,6.71875,5.279687881469727
04-10-1993,6.640625,6.71875,248000,6.75,6.640625,5.218295574188232
05-10-1993,6.578125,6.65625,122400,6.65625,6.578125,5.1691813468933105
06-10-1993,6.5,6.578125,114400,6.578125,6.53125,5.1323466300964355
07-10-1993,6.4375,6.5,224000,6.5,6.484375,5.095513820648193
08-10-1993,6.40625,6.484375,245600,6.484375,6.421875,5.05224084854126
11-10-1993,6.25,6.421875,288000,6.421875,6.25,4.917026519775391
12-10-1993,6.125,6.25,272800,6.25,6.125,4.818684101104736
13-10-1993,5.96875,6.078125,826400,6.109375,5.984375,4.708053112030029
14-10-1993,6.0,6.09375,388000,6.125,6.03125,4.744929790496826
15-10-1993,5.828125,6.0,707200,6.0,5.875,4.622001647949219
18-10-1993,5.71875,5.875,719200,5.875,5.75,4.523662567138672
19-10-1993,5.484375,5.75,1467200,5.875,5.828125,4.585128307342529
20-10-1993,5.3125,5.796875,1626400,5.796875,5.3125,4.179473876953125
21-10-1993,5.4375,5.4375,3216000,5.6875,5.5,4.326982498168945
22-10-1993,5.375,5.5,928800,5.5,5.375,4.228639125823975
25-10-1993,5.28125,5.375,901600,5.421875,5.28125,4.1548848152160645
26-10-1993,5.0,5.28125,1536800,5.3125,5.03125,3.9582011699676514
27-10-1993,5.0625,5.0625,1416000,5.1875,5.1875,4.0811309814453125
28-10-1993,5.1875,5.1875,1215200,5.453125,5.453125,4.290104389190674
29-10-1993,5.328125,5.421875,412800,5.46875,5.34375,4.2040557861328125
01-11-1993,5.34375,5.359375,379200,5.484375,5.453125,4.290104389190674
02-11-1993,5.453125,5.453125,553600,5.578125,5.5625,4.376152992248535
03-11-1993,5.578125,5.609375,540800,5.671875,5.625,4.425322532653809
04-11-1993,5.625,5.65625,345600,5.734375,5.625,4.425322532653809
05-11-1993,5.53125,5.625,112800,5.625,5.5625,4.376152992248535
08-11-1993,5.46875,5.5625,207200,5.5625,5.46875,4.302394866943359
09-11-1993,5.1875,5.46875,542400,5.46875,5.21875,4.105712890625
10-11-1993,5.21875,5.25,191200,5.28125,5.265625,4.1425933837890625
11-11-1993,5.203125,5.28125,564800,5.40625,5.21875,4.105712890625
12-11-1993,5.0625,5.203125,1202400,5.203125,5.203125,4.093422889709473
15-11-1993,5.140625,5.203125,675200,5.234375,5.140625,4.044253349304199
16-11-1993,4.875,4.96875,827200,4.984375,4.9375,3.8844492435455322
17-11-1993,4.9375,5.0,1617600,5.203125,5.203125,4.093422889709473
18-11-1993,5.15625,5.203125,463200,5.359375,5.296875,4.167178630828857
19-11-1993,5.21875,5.25,85600,5.265625,5.265625,4.1425933837890625
22-11-1993,5.078125,5.25,173600,5.25,5.078125,3.9950804710388184
23-11-1993,5.078125,5.109375,697600,5.21875,5.09375,4.007376670837402
24-11-1993,5.109375,5.109375,556800,5.15625,5.15625,4.056545257568359
26-11-1993,5.03125,5.125,94400,5.125,5.03125,3.9582011699676514
29-11-1993,4.828125,4.96875,1270400,4.96875,4.828125,3.798400402069092
30-11-1993,4.78125,4.84375,457600,4.859375,4.828125,3.798400402069092
01-12-1993,4.828125,4.859375,316000,4.921875,4.859375,3.8229849338531494
02-12-1993,4.84375,4.84375,429600,4.90625,4.859375,3.8229849338531494
03-12-1993,4.875,4.875,142400,4.90625,4.875,3.8352770805358887
06-12-1993,4.84375,4.875,308800,4.90625,4.890625,3.8475701808929443
07-12-1993,4.859375,4.875,528800,4.953125,4.90625,3.8598649501800537
08-12-1993,4.84375,4.890625,89600,4.890625,4.859375,3.8229849338531494
09-12-1993,4.71875,4.859375,69600,4.859375,4.78125,3.7615222930908203
10-12-1993,4.796875,4.796875,271200,4.84375,4.828125,3.798400402069092
13-12-1993,4.71875,4.859375,102400,4.859375,4.765625,3.7492306232452393
14-12-1993,4.734375,4.796875,620800,4.8125,4.8125,3.7861087322235107
15-12-1993,4.71875,4.765625,128000,4.765625,4.734375,3.72464656829834
16-12-1993,4.75,4.75,565600,4.84375,4.78125,3.7615222930908203
17-12-1993,4.734375,4.796875,200800,4.8125,4.75,3.736937999725342
20-12-1993,4.40625,4.71875,927200,4.71875,4.515625,3.552548885345459
21-12-1993,4.265625,4.546875,880000,4.546875,4.4375,3.4910879135131836
22-12-1993,4.40625,4.453125,676000,4.75,4.734375,3.72464656829834
23-12-1993,4.703125,4.703125,176000,4.796875,4.75,3.736937999725342
27-12-1993,4.6875,4.6875,1060000,4.890625,4.859375,3.8229849338531494
28-12-1993,4.8125,4.890625,629600,4.921875,4.8125,3.7861087322235107
29-12-1993,4.828125,4.828125,648000,4.890625,4.859375,3.8229849338531494
30-12-1993,4.828125,4.84375,270400,4.859375,4.859375,3.8229849338531494
31-12-1993,4.828125,4.859375,112800,4.875,4.875,3.8352770805358887
03-01-1994,4.828125,4.875,332000,4.875,4.875,3.8352770805358887
04-01-1994,4.84375,4.84375,202400,4.890625,4.890625,3.8475701808929443
05-01-1994,4.96875,4.96875,800000,5.25,5.203125,4.093422889709473
06-01-1994,5.234375,5.234375,999200,5.484375,5.453125,4.290104389190674
07-01-1994,5.40625,5.46875,704800,5.46875,5.4375,4.2778120040893555
10-01-1994,5.421875,5.421875,573600,5.640625,5.640625,4.443741798400879
11-01-1994,5.453125,5.59375,1028800,5.59375,5.5,4.332958221435547
12-01-1994,5.390625,5.5,296000,5.53125,5.40625,4.259099960327148
13-01-1994,5.3125,5.40625,10779200,5.421875,5.3125,4.185244560241699
14-01-1994,5.15625,5.28125,1295200,5.328125,5.15625,4.062149524688721
17-01-1994,5.21875,5.25,1098400,5.3125,5.296875,4.172933578491211
18-01-1994,5.3125,5.3125,851200,5.4375,5.4375,4.283719062805176
19-01-1994,5.46875,5.46875,1249600,5.609375,5.515625,4.345269203186035
20-01-1994,5.359375,5.515625,487200,5.5625,5.359375,4.222173690795898
21-01-1994,5.34375,5.390625,354400,5.421875,5.375,4.234482288360596
24-01-1994,5.3125,5.390625,408800,5.40625,5.3125,4.185244560241699
25-01-1994,5.296875,5.3125,284000,5.328125,5.3125,4.185244560241699
26-01-1994,5.265625,5.3125,873600,5.40625,5.375,4.234482288360596
27-01-1994,5.375,5.375,1322400,5.5625,5.546875,4.369887351989746
28-01-1994,5.484375,5.5,303200,5.515625,5.5,4.332958221435547
31-01-1994,5.515625,5.53125,787200,5.671875,5.515625,4.345269203186035
01-02-1994,5.546875,5.546875,700800,5.625,5.609375,4.419124603271484
02-02-1994,5.578125,5.578125,999200,5.9375,5.765625,4.542219161987305
03-02-1994,5.734375,5.8125,155200,5.8125,5.75,4.52991247177124
04-02-1994,5.703125,5.78125,1171200,5.828125,5.71875,4.505293369293213
07-02-1994,5.609375,5.671875,363200,5.671875,5.625,4.431434631347656
08-02-1994,5.59375,5.625,355200,5.75,5.734375,4.517599105834961
09-02-1994,5.59375,5.734375,272800,5.734375,5.65625,4.456052780151367
10-02-1994,5.5,5.65625,944800,5.65625,5.5,4.332958221435547
11-02-1994,5.5,5.53125,212800,5.71875,5.6875,4.4806742668151855
14-02-1994,5.40625,5.6875,335200,5.6875,5.5,4.332958221435547
15-02-1994,5.46875,5.46875,137600,5.53125,5.5,4.332958221435547
16-02-1994,5.375,5.46875,541600,5.484375,5.375,4.234482288360596
17-02-1994,5.34375,5.390625,538400,5.46875,5.34375,4.209863662719727
18-02-1994,5.328125,5.375,437600,5.390625,5.34375,4.209863662719727
22-02-1994,5.359375,5.375,83200,5.40625,5.375,4.234482288360596
23-02-1994,5.34375,5.34375,152000,5.4375,5.421875,4.27140998840332
24-02-1994,5.375,5.421875,108800,5.4375,5.4375,4.283719062805176
25-02-1994,5.46875,5.5,848800,5.5625,5.46875,4.308337688446045
28-02-1994,5.375,5.46875,57600,5.46875,5.375,4.234482288360596
01-03-1994,5.34375,5.40625,180000,5.40625,5.375,4.234482288360596
02-03-1994,5.28125,5.34375,310400,5.34375,5.3125,4.185244560241699
03-03-1994,5.296875,5.328125,92800,5.34375,5.3125,4.185244560241699
04-03-1994,5.296875,5.296875,196800,5.40625,5.390625,4.246790409088135
07-03-1994,5.34375,5.40625,268800,5.40625,5.34375,4.209863662719727
08-03-1994,5.234375,5.3125,516800,5.328125,5.234375,4.123697280883789
09-03-1994,4.96875,5.203125,609600,5.203125,5.03125,3.963670253753662
10-03-1994,4.921875,5.015625,894400,5.046875,4.9375,3.889815330505371
11-03-1994,4.921875,4.953125,410400,5.03125,5.015625,3.9513614177703857
14-03-1994,5.015625,5.015625,308800,5.1875,5.171875,4.074456691741943
15-03-1994,5.21875,5.21875,446400,5.328125,5.28125,4.160625457763672
16-03-1994,5.25,5.265625,458400,5.296875,5.28125,4.160625457763672
17-03-1994,5.265625,5.265625,423200,5.515625,5.484375,4.320649147033691
18-03-1994,5.5,5.53125,879200,5.6875,5.6875,4.4806742668151855
21-03-1994,5.671875,5.71875,813600,5.734375,5.71875,4.505293369293213
22-03-1994,5.6875,5.6875,1078400,5.8125,5.796875,4.566838264465332
23-03-1994,5.625,5.6875,722400,5.6875,5.671875,4.4683613777160645
24-03-1994,5.5625,5.59375,674400,5.65625,5.625,4.431434631347656
25-03-1994,5.609375,5.609375,510400,5.671875,5.625,4.431434631347656
28-03-1994,5.4375,5.609375,1590400,5.609375,5.4375,4.283719062805176
29-03-1994,5.25,5.421875,617600,5.421875,5.25,4.1360039710998535
30-03-1994,5.109375,5.234375,567200,5.328125,5.3125,4.185244560241699
31-03-1994,5.265625,5.3125,148800,5.34375,5.34375,4.209863662719727
04-04-1994,5.25,5.3125,445600,5.3125,5.265625,4.1483154296875
05-04-1994,5.234375,5.28125,940000,5.328125,5.25,4.1360039710998535
06-04-1994,5.21875,5.3125,240000,5.375,5.375,4.234482288360596
07-04-1994,5.34375,5.375,574400,5.4375,5.34375,4.209863662719727
08-04-1994,5.3125,5.328125,169600,5.34375,5.34375,4.209863662719727
11-04-1994,5.265625,5.3125,698400,5.3125,5.296875,4.178798198699951
12-04-1994,5.3125,5.3125,1101600,5.40625,5.375,4.24043083190918
13-04-1994,5.359375,5.375,604000,5.4375,5.4375,4.2897419929504395
14-04-1994,5.359375,5.390625,1280800,5.53125,5.53125,4.363700866699219
15-04-1994,5.46875,5.53125,826400,5.875,5.875,4.634890079498291
18-04-1994,5.6875,5.8125,1331200,5.8125,5.796875,4.573260307312012
19-04-1994,5.734375,5.78125,704000,5.8125,5.734375,4.523950099945068
20-04-1994,5.703125,5.71875,727200,5.71875,5.71875,4.511623382568359
21-04-1994,5.703125,5.703125,480000,5.765625,5.75,4.5362772941589355
22-04-1994,5.71875,5.734375,332000,5.796875,5.765625,4.548604488372803
25-04-1994,5.734375,5.765625,498400,5.9375,5.9375,4.684200286865234
26-04-1994,5.9375,5.9375,1096000,5.96875,5.96875,4.708856105804443
28-04-1994,5.9375,5.953125,856800,6.015625,5.953125,4.696527004241943
29-04-1994,5.890625,5.9375,535200,5.9375,5.9375,4.684200286865234
02-05-1994,5.890625,5.90625,652000,5.953125,5.953125,4.696527004241943
03-05-1994,5.859375,5.9375,560800,5.9375,5.875,4.634890079498291
04-05-1994,5.875,5.875,358400,5.9375,5.9375,4.684200286865234
05-05-1994,5.921875,5.96875,66400,5.96875,5.921875,4.671874523162842
06-05-1994,5.921875,5.921875,343200,6.125,6.09375,4.807468891143799
09-05-1994,6.03125,6.109375,453600,6.109375,6.078125,4.795141696929932
10-05-1994,6.09375,6.140625,632800,6.140625,6.09375,4.807468891143799
11-05-1994,6.03125,6.09375,187200,6.109375,6.03125,4.758161544799805
12-05-1994,6.03125,6.046875,806400,6.15625,6.140625,4.844449996948242
13-05-1994,6.109375,6.109375,257600,6.125,6.125,4.8321213722229
16-05-1994,6.109375,6.140625,293600,6.140625,6.109375,4.819796562194824
17-05-1994,5.890625,6.09375,1044000,6.09375,5.953125,4.696527004241943
18-05-1994,5.90625,5.96875,1417600,5.984375,5.96875,4.708856105804443
19-05-1994,5.890625,5.984375,205600,5.984375,5.890625,4.647218227386475
20-05-1994,5.8125,5.90625,309600,5.90625,5.828125,4.597912311553955
23-05-1994,5.765625,5.796875,208800,5.8125,5.765625,4.548604488372803
24-05-1994,5.703125,5.75,287200,5.75,5.703125,4.499297142028809
25-05-1994,5.65625,5.71875,179200,5.71875,5.65625,4.46231746673584
26-05-1994,5.515625,5.59375,840800,5.625,5.546875,4.376029968261719
27-05-1994,5.53125,5.5625,70400,5.59375,5.578125,4.400680065155029
31-05-1994,5.5,5.546875,752800,5.578125,5.5,4.339046001434326
01-06-1994,5.5,5.5,480800,5.546875,5.515625,4.351377487182617
02-06-1994,5.46875,5.5,600000,5.53125,5.46875,4.314394474029541
03-06-1994,5.34375,5.453125,136800,5.453125,5.421875,4.277413845062256
06-06-1994,5.453125,5.5,132800,5.5,5.46875,4.314394474029541
07-06-1994,5.46875,5.46875,863200,5.578125,5.5625,4.388356685638428
08-06-1994,5.4375,5.5625,276800,5.5625,5.46875,4.314394474029541
09-06-1994,5.375,5.4375,304800,5.4375,5.375,4.24043083190918
10-06-1994,5.375,5.375,165600,5.578125,5.578125,4.400680065155029
13-06-1994,5.578125,5.578125,736800,5.703125,5.6875,4.486969947814941
14-06-1994,5.703125,5.703125,476000,5.75,5.75,4.5362772941589355
15-06-1994,5.71875,5.75,292000,5.78125,5.734375,4.523950099945068
16-06-1994,5.71875,5.71875,132000,5.78125,5.78125,4.56093168258667
17-06-1994,5.75,5.75,384000,5.90625,5.90625,4.659543514251709
20-06-1994,5.75,5.9375,174800,5.9375,5.84375,4.6102399826049805
21-06-1994,5.78125,5.78125,166400,5.90625,5.90625,4.659543514251709
22-06-1994,5.875,5.96875,52800,5.96875,5.90625,4.659543514251709
23-06-1994,5.75,5.96875,197200,5.96875,5.75,4.5362772941589355
24-06-1994,5.59375,5.75,143200,5.75,5.71875,4.511623382568359
27-06-1994,5.625,5.6875,136800,5.75,5.71875,4.511623382568359
28-06-1994,5.59375,5.65625,190800,5.71875,5.71875,4.511623382568359
29-06-1994,5.65625,5.71875,94800,5.75,5.75,4.5362772941589355
30-06-1994,5.59375,5.6875,440400,5.75,5.75,4.5362772941589355
01-07-1994,5.625,5.75,150400,5.75,5.65625,4.46231746673584
05-07-1994,5.5,5.6875,72400,5.6875,5.5,4.339046001434326
06-07-1994,5.46875,5.5,182800,5.6875,5.6875,4.486969947814941
07-07-1994,5.59375,5.71875,36000,5.71875,5.59375,4.4130120277404785
08-07-1994,5.5,5.5625,24000,5.59375,5.5,4.339046001434326
11-07-1994,5.5,5.53125,51600,5.5625,5.5625,4.394347190856934
12-07-1994,5.5,5.5625,98800,5.59375,5.5625,4.394347190856934
13-07-1994,5.40625,5.59375,277200,5.65625,5.5,4.344970703125
14-07-1994,5.4375,5.53125,72800,5.53125,5.4375,4.295598983764648
15-07-1994,5.34375,5.40625,68800,5.40625,5.375,4.246222496032715
18-07-1994,5.3125,5.4375,261600,5.46875,5.46875,4.320284843444824
19-07-1994,5.375,5.4375,143200,5.4375,5.375,4.246222496032715
20-07-1994,5.3125,5.40625,31600,5.40625,5.3125,4.196852207183838
21-07-1994,5.1875,5.1875,230800,5.34375,5.34375,4.221536159515381
22-07-1994,5.1875,5.3125,37600,5.3125,5.21875,4.122786045074463
25-07-1994,5.03125,5.25,187200,5.25,5.03125,3.974663496017456
26-07-1994,4.9375,5.0625,230000,5.0625,4.96875,3.925288677215576
27-07-1994,4.90625,5.0,551200,5.03125,4.9375,3.900602340698242
28-07-1994,4.9375,4.9375,342800,5.0,5.0,3.9499762058258057
29-07-1994,4.96875,5.0,209600,5.0,4.96875,3.925288677215576
01-08-1994,4.9375,4.9375,620000,5.0,5.0,3.9499762058258057
02-08-1994,4.9375,4.96875,216400,5.0,5.0,3.9499762058258057
03-08-1994,4.90625,4.96875,430800,5.03125,5.0,3.9499762058258057
04-08-1994,4.9375,4.96875,156400,5.0625,5.0,3.9499762058258057
05-08-1994,4.78125,4.96875,233200,5.0,4.78125,3.7771613597869873
08-08-1994,4.8125,4.84375,731600,4.90625,4.84375,3.826540470123291
09-08-1994,4.78125,4.8125,1479200,5.0,5.0,3.9499762058258057
10-08-1994,5.03125,5.0625,600000,5.125,5.0625,3.99934983253479
11-08-1994,4.96875,5.03125,326800,5.09375,4.96875,3.925288677215576
12-08-1994,4.9375,4.96875,558400,5.03125,5.0,3.9499762058258057
15-08-1994,4.96875,5.0,71600,5.0625,4.96875,3.925288677215576
16-08-1994,4.9375,5.0,300800,5.0,4.9375,3.900602340698242
17-08-1994,4.90625,4.9375,148800,5.0,4.96875,3.925288677215576
18-08-1994,4.90625,4.96875,228400,4.96875,4.9375,3.900602340698242
19-08-1994,4.90625,4.9375,330400,4.953125,4.90625,3.8759145736694336
22-08-1994,4.8125,4.9375,137200,4.9375,4.8125,3.8018534183502197
23-08-1994,4.78125,4.875,459200,4.90625,4.84375,3.826540470123291
24-08-1994,4.875,4.875,956000,5.03125,4.9375,3.900602340698242
25-08-1994,4.75,4.96875,773200,4.96875,4.78125,3.7771613597869873
26-08-1994,4.65625,4.8125,1071600,4.875,4.8125,3.8018534183502197
29-08-1994,4.625,4.875,1677600,4.875,4.71875,3.7277896404266357
30-08-1994,4.6875,4.71875,976800,4.8125,4.8125,3.8018534183502197
31-08-1994,4.75,4.8125,1103600,4.90625,4.8125,3.8018534183502197
01-09-1994,4.78125,4.78125,967600,4.875,4.84375,3.826540470123291
02-09-1994,4.84375,4.90625,250400,4.9375,4.9375,3.900602340698242
06-09-1994,4.875,4.90625,397200,5.03125,5.03125,3.974663496017456
07-09-1994,5.0625,5.0625,1347600,5.25,5.1875,4.098102569580078
08-09-1994,5.125,5.125,1925200,5.4375,5.4375,4.295598983764648
09-09-1994,5.125,5.375,1384800,5.375,5.125,4.048723220825195
12-09-1994,5.125,5.1875,572800,5.21875,5.125,4.048723220825195
13-09-1994,5.125,5.15625,136400,5.1875,5.15625,4.073414325714111
14-09-1994,5.125,5.125,378800,5.25,5.25,4.1474738121032715
15-09-1994,5.21875,5.25,1040800,5.3125,5.25,4.1474738121032715
16-09-1994,5.25,5.28125,429600,5.375,5.375,4.246222496032715
19-09-1994,5.25,5.375,374400,5.375,5.25,4.1474738121032715
20-09-1994,5.0,5.1875,248400,5.1875,5.125,4.048723220825195
21-09-1994,4.9375,5.125,303200,5.125,5.0,3.9499762058258057
22-09-1994,5.0,5.0625,68000,5.0625,5.0,3.9499762058258057
23-09-1994,5.0625,5.0625,456000,5.21875,5.1875,4.098102569580078
26-09-1994,5.15625,5.15625,168800,5.25,5.25,4.1474738121032715
27-09-1994,5.15625,5.21875,271200,5.21875,5.1875,4.098102569580078
28-09-1994,5.15625,5.1875,45600,5.21875,5.15625,4.073414325714111
29-09-1994,5.125,5.1875,135200,5.1875,5.15625,4.073414325714111
30-09-1994,5.0625,5.1875,63600,5.1875,5.09375,4.024038314819336
03-10-1994,5.0625,5.09375,100000,5.125,5.0625,3.99934983253479
04-10-1994,4.96875,5.09375,256800,5.09375,4.96875,3.925288677215576
05-10-1994,4.96875,4.96875,100400,5.03125,5.03125,3.974663496017456
06-10-1994,5.03125,5.0625,187200,5.125,5.0625,3.99934983253479
07-10-1994,5.09375,5.09375,220000,5.3125,5.28125,4.178351402282715
10-10-1994,5.28125,5.28125,344000,5.375,5.3125,4.203078746795654
11-10-1994,5.3125,5.3125,328800,5.375,5.3125,4.203078746795654
12-10-1994,5.15625,5.25,155600,5.25,5.15625,4.079458236694336
13-10-1994,5.1875,5.21875,285600,5.28125,5.25,4.153627395629883
14-10-1994,5.1875,5.25,151200,5.25,5.25,4.153627395629883
17-10-1994,5.25,5.3125,88000,5.3125,5.25,4.153627395629883
18-10-1994,5.25,5.25,153200,5.375,5.375,4.2525224685668945
19-10-1994,5.34375,5.34375,236000,5.4375,5.34375,4.227799415588379
20-10-1994,5.21875,5.3125,174000,5.34375,5.25,4.153627395629883
21-10-1994,5.1875,5.1875,66800,5.25,5.21875,4.128902435302734
24-10-1994,5.1875,5.25,72800,5.34375,5.3125,4.203078746795654
25-10-1994,5.1875,5.3125,243200,5.34375,5.25,4.153627395629883
26-10-1994,5.21875,5.25,512800,5.40625,5.40625,4.277246475219727
27-10-1994,5.375,5.375,1548800,5.625,5.53125,4.376143932342529
28-10-1994,5.46875,5.5,638000,5.6875,5.65625,4.475040435791016
31-10-1994,5.5,5.625,102000,5.625,5.53125,4.376143932342529
01-11-1994,5.46875,5.53125,71200,5.5625,5.5625,4.400866985321045
02-11-1994,5.4375,5.53125,349600,5.53125,5.46875,4.326694488525391
03-11-1994,5.46875,5.5,54000,5.5625,5.53125,4.376143932342529
04-11-1994,5.46875,5.46875,237600,5.53125,5.46875,4.326694488525391
07-11-1994,5.4375,5.5,145600,5.5,5.4375,4.301972389221191
08-11-1994,5.375,5.40625,126800,5.4375,5.40625,4.277246475219727
09-11-1994,5.4375,5.4375,328400,5.46875,5.4375,4.301972389221191
10-11-1994,5.4375,5.4375,60800,5.46875,5.4375,4.301972389221191
11-11-1994,5.34375,5.4375,80800,5.46875,5.34375,4.227799415588379
14-11-1994,5.21875,5.3125,125600,5.3125,5.25,4.153627395629883
15-11-1994,5.21875,5.25,166400,5.28125,5.28125,4.178351402282715
16-11-1994,5.15625,5.21875,154800,5.25,5.15625,4.079458236694336
17-11-1994,4.90625,5.09375,990400,5.09375,4.96875,3.93111252784729
18-11-1994,4.625,4.90625,1564800,4.90625,4.78125,3.7827653884887695
21-11-1994,4.71875,4.8125,789600,4.84375,4.75,3.758045196533203
22-11-1994,4.625,4.6875,559600,4.71875,4.6875,3.70859694480896
23-11-1994,4.5,4.71875,952400,4.71875,4.59375,3.6344234943389893
25-11-1994,4.53125,4.5625,45600,4.59375,4.53125,3.5849769115448
28-11-1994,4.46875,4.59375,1295600,4.59375,4.53125,3.5849769115448
29-11-1994,4.46875,4.53125,1277200,4.625,4.59375,3.6344234943389893
30-11-1994,4.53125,4.625,410400,4.625,4.53125,3.5849769115448
01-12-1994,4.5,4.53125,507600,4.65625,4.625,3.659146785736084
02-12-1994,4.625,4.625,588000,4.6875,4.625,3.659146785736084
05-12-1994,4.375,4.59375,1013600,4.65625,4.375,3.4613571166992188
06-12-1994,4.375,4.375,664400,4.4375,4.375,3.4613571166992188
07-12-1994,4.34375,4.375,218400,4.5625,4.5625,3.6097004413604736
08-12-1994,4.53125,4.53125,552800,4.8125,4.6875,3.70859694480896
09-12-1994,4.5625,4.625,588400,4.625,4.59375,3.6344234943389893
12-12-1994,4.625,4.625,519200,4.6875,4.65625,3.683870553970337
13-12-1994,4.65625,4.65625,408000,4.78125,4.75,3.758045196533203
14-12-1994,4.78125,4.78125,529200,4.96875,4.9375,3.9063894748687744
15-12-1994,4.8125,4.96875,116000,4.96875,4.84375,3.8322179317474365
16-12-1994,4.8125,4.84375,312800,4.875,4.84375,3.8322179317474365
19-12-1994,4.75,4.84375,426800,4.84375,4.8125,3.8074939250946045
20-12-1994,4.625,4.75,305200,4.8125,4.65625,3.683870553970337
21-12-1994,4.59375,4.6875,634400,4.6875,4.625,3.659146785736084
22-12-1994,4.53125,4.65625,284000,4.65625,4.53125,3.5849769115448
23-12-1994,4.53125,4.5625,29600,4.59375,4.5625,3.6097004413604736
27-12-1994,4.4375,4.59375,209600,4.59375,4.5,3.5602519512176514
28-12-1994,4.5,4.5,228800,4.59375,4.59375,3.6344234943389893
29-12-1994,4.65625,4.65625,221200,4.8125,4.71875,3.733320713043213
30-12-1994,4.6875,4.71875,150400,4.78125,4.6875,3.70859694480896
03-01-1995,4.65625,4.75,129600,4.78125,4.75,3.758045196533203
04-01-1995,4.6875,4.75,68400,4.8125,4.71875,3.733320713043213
05-01-1995,4.59375,4.65625,260000,4.6875,4.65625,3.683870553970337
06-01-1995,4.5,4.6875,404800,4.6875,4.5625,3.6097004413604736
09-01-1995,4.46875,4.53125,613600,4.5625,4.46875,3.541350841522217
10-01-1995,4.3125,4.4375,289600,4.4375,4.3125,3.4175262451171875
11-01-1995,4.3125,4.3125,124800,4.40625,4.40625,3.491820812225342
12-01-1995,4.3125,4.375,374400,4.4375,4.3125,3.4175262451171875
13-01-1995,4.28125,4.3125,66800,4.40625,4.375,3.4670557975769043
16-01-1995,4.28125,4.3125,480800,4.328125,4.3125,3.4175262451171875
17-01-1995,4.3125,4.3125,437600,4.4375,4.40625,3.491820812225342
18-01-1995,4.40625,4.40625,606000,4.59375,4.5625,3.6156444549560547
19-01-1995,4.5,4.5625,248000,4.5625,4.5,3.566115379333496
20-01-1995,4.5,4.53125,76400,4.53125,4.53125,3.5908780097961426
23-01-1995,4.375,4.46875,128800,4.5,4.375,3.4670557975769043
24-01-1995,4.375,4.375,345600,4.5625,4.53125,3.5908780097961426
25-01-1995,4.46875,4.53125,129600,4.53125,4.5,3.566115379333496
26-01-1995,4.5,4.5,145200,4.625,4.625,3.6651735305786133
27-01-1995,4.5,4.5625,512000,4.59375,4.53125,3.5908780097961426
30-01-1995,4.4375,4.53125,193200,4.53125,4.46875,3.541350841522217
31-01-1995,4.4375,4.4375,186400,4.53125,4.4375,3.5165843963623047
01-02-1995,4.4375,4.4375,46000,4.5,4.46875,3.541350841522217
02-02-1995,4.4375,4.46875,41600,4.5,4.46875,3.541350841522217
03-02-1995,4.4375,4.5,243600,4.53125,4.5,3.566115379333496
06-02-1995,4.5625,4.625,651200,4.8125,4.75,3.7642316818237305
07-02-1995,4.6875,4.8125,437200,4.8125,4.6875,3.7147021293640137
08-02-1995,4.71875,4.71875,549600,4.8125,4.75,3.7642316818237305
09-02-1995,4.6875,4.78125,278800,4.78125,4.6875,3.7147021293640137
10-02-1995,4.6875,4.71875,243600,4.78125,4.78125,3.788997173309326
13-02-1995,4.8125,4.8125,264800,4.90625,4.84375,3.838526487350464
14-02-1995,4.75,4.84375,137600,4.84375,4.84375,3.838526487350464
15-02-1995,4.8125,4.84375,277200,4.96875,4.9375,3.9128193855285645
16-02-1995,4.9375,4.9375,477600,5.03125,5.0,3.9623491764068604
17-02-1995,5.0,5.0,261200,5.125,5.125,4.061408519744873
21-02-1995,5.09375,5.125,92400,5.125,5.125,4.061408519744873
22-02-1995,5.0625,5.09375,214400,5.125,5.09375,4.036644458770752
23-02-1995,5.0625,5.125,348800,5.15625,5.15625,4.086175918579102
24-02-1995,5.09375,5.15625,281200,5.15625,5.125,4.061408519744873
27-02-1995,5.09375,5.125,381600,5.15625,5.15625,4.086175918579102
28-02-1995,5.15625,5.1875,322400,5.21875,5.21875,4.135700225830078
01-03-1995,5.15625,5.1875,70800,5.1875,5.15625,4.086175918579102
02-03-1995,5.15625,5.15625,218800,5.25,5.25,4.160466194152832
03-03-1995,5.21875,5.25,259600,5.28125,5.25,4.160466194152832
06-03-1995,5.15625,5.25,236400,5.25,5.21875,4.135700225830078
07-03-1995,5.125,5.25,405200,5.25,5.125,4.061408519744873
08-03-1995,5.125,5.15625,442800,5.28125,5.21875,4.135700225830078
09-03-1995,5.1875,5.25,179600,5.28125,5.28125,4.185230731964111
10-03-1995,5.15625,5.25,170400,5.25,5.15625,4.086175918579102
13-03-1995,5.15625,5.1875,100800,5.21875,5.1875,4.110938549041748
14-03-1995,5.1875,5.1875,101600,5.25,5.25,4.160466194152832
15-03-1995,5.25,5.25,317200,5.34375,5.3125,4.209996223449707
16-03-1995,5.28125,5.28125,635600,5.5,5.4375,4.309054374694824
17-03-1995,5.3125,5.40625,492800,5.5,5.4375,4.309054374694824
20-03-1995,5.28125,5.40625,426800,5.5,5.34375,4.234762191772461
21-03-1995,5.25,5.3125,159600,5.3125,5.25,4.160466194152832
22-03-1995,5.28125,5.3125,349200,5.375,5.3125,4.209996223449707
23-03-1995,5.3125,5.34375,279600,5.4375,5.40625,4.284287929534912
24-03-1995,5.28125,5.40625,696000,5.40625,5.3125,4.209996223449707
27-03-1995,5.3125,5.34375,314400,5.5,5.5,4.358583927154541
28-03-1995,5.5,5.5,268800,5.5625,5.5625,4.408112525939941
29-03-1995,5.5625,5.5625,458000,5.6875,5.625,4.457644462585449
30-03-1995,5.65625,5.65625,414400,5.875,5.875,4.655761241912842
31-03-1995,5.90625,5.90625,1336800,6.21875,6.15625,4.878643035888672
03-04-1995,5.96875,6.15625,1253600,6.15625,5.96875,4.730055809020996
04-04-1995,5.84375,5.96875,666000,5.96875,5.875,4.655761241912842
05-04-1995,5.84375,5.875,1044800,5.96875,5.90625,4.680526256561279
06-04-1995,5.71875,5.875,704000,5.875,5.71875,4.5319366455078125
07-04-1995,5.625,5.6875,227600,5.75,5.625,4.463498592376709
10-04-1995,5.59375,5.59375,525600,5.75,5.75,4.587152481079102
11-04-1995,5.6875,5.78125,668400,5.78125,5.75,4.587152481079102
12-04-1995,5.71875,5.75,110400,5.78125,5.78125,4.612082004547119
13-04-1995,5.75,5.8125,191600,5.875,5.75,4.587152481079102
17-04-1995,5.75,5.78125,133200,5.8125,5.75,4.587152481079102
18-04-1995,5.5625,5.75,805200,5.75,5.5625,4.437570095062256
19-04-1995,5.53125,5.59375,182400,5.625,5.625,4.487428188323975
20-04-1995,5.625,5.625,356000,5.78125,5.78125,4.612082004547119
21-04-1995,5.8125,5.8125,1894000,6.1875,6.09375,4.861385345458984
24-04-1995,5.9375,6.125,940800,6.1875,5.9375,4.736733436584473
25-04-1995,5.84375,5.875,103200,5.90625,5.84375,4.66193962097168
26-04-1995,5.71875,5.875,144000,5.875,5.78125,4.612082004547119
27-04-1995,5.65625,5.78125,390800,5.78125,5.65625,4.512359619140625
28-04-1995,5.6875,5.71875,266400,5.71875,5.71875,4.562221527099609
01-05-1995,5.71875,5.75,529200,5.78125,5.75,4.587152481079102
02-05-1995,5.6875,5.75,406400,5.75,5.75,4.587152481079102
03-05-1995,5.75,5.75,199600,5.8125,5.75,4.587152481079102
04-05-1995,5.6875,5.75,215200,5.75,5.71875,4.562221527099609
05-05-1995,5.65625,5.6875,289200,5.75,5.65625,4.512359619140625
08-05-1995,5.625,5.65625,224000,5.6875,5.65625,4.512359619140625
09-05-1995,5.625,5.65625,509200,5.8125,5.8125,4.637011528015137
10-05-1995,5.78125,5.78125,706400,5.9375,5.9375,4.736733436584473
11-05-1995,5.78125,5.90625,222000,5.90625,5.8125,4.637011528015137
12-05-1995,5.75,5.8125,38800,5.8125,5.78125,4.612082004547119
15-05-1995,5.78125,5.8125,279600,5.875,5.875,4.686870574951172
16-05-1995,5.84375,5.90625,43200,5.9375,5.84375,4.66193962097168
17-05-1995,5.78125,5.84375,295600,5.84375,5.8125,4.637011528015137
18-05-1995,5.65625,5.8125,107600,5.8125,5.71875,4.562221527099609
19-05-1995,5.71875,5.71875,130800,5.75,5.75,4.587152481079102
22-05-1995,5.6875,5.75,64000,5.75,5.6875,4.537290573120117
23-05-1995,5.71875,5.71875,340800,5.90625,5.875,4.686870574951172
24-05-1995,5.84375,5.875,449200,6.09375,6.09375,4.861385345458984
25-05-1995,6.0,6.03125,798400,6.125,6.0625,4.836452960968018
26-05-1995,5.9375,6.0625,177600,6.0625,5.96875,4.761659622192383
30-05-1995,5.9375,5.9375,303600,6.03125,6.03125,4.811522960662842
31-05-1995,6.0,6.0625,254800,6.0625,6.0625,4.836452960968018
01-06-1995,6.03125,6.0625,26000,6.09375,6.03125,4.811522960662842
02-06-1995,5.9375,6.0625,201600,6.09375,5.96875,4.761659622192383
05-06-1995,5.96875,6.0,137600,6.0,6.0,4.786591529846191
06-06-1995,5.875,6.0,53200,6.0,5.90625,4.711801528930664
07-06-1995,5.8125,5.9375,307600,5.9375,5.8125,4.637011528015137
08-06-1995,5.75,5.8125,242000,5.8125,5.78125,4.612082004547119
09-06-1995,5.75,5.78125,652000,5.8125,5.78125,4.612082004547119
12-06-1995,5.71875,5.78125,188000,5.78125,5.75,4.587152481079102
13-06-1995,5.6875,5.6875,119200,5.71875,5.71875,4.562221527099609
14-06-1995,5.71875,5.78125,300400,5.78125,5.78125,4.612082004547119
15-06-1995,5.71875,5.75,186800,5.8125,5.8125,4.637011528015137
16-06-1995,5.6875,5.8125,190000,5.8125,5.6875,4.537290573120117
19-06-1995,5.59375,5.65625,399600,5.71875,5.6875,4.537290573120117
20-06-1995,5.34375,5.71875,788000,5.71875,5.34375,4.263061046600342
21-06-1995,5.1875,5.34375,494400,5.34375,5.21875,4.163337230682373
22-06-1995,5.0625,5.21875,762800,5.21875,5.15625,4.113475799560547
23-06-1995,5.1875,5.1875,2558400,5.34375,5.3125,4.238128662109375
26-06-1995,5.25,5.28125,352400,5.375,5.34375,4.263061046600342
27-06-1995,5.3125,5.3125,496800,5.4375,5.40625,4.312917709350586
28-06-1995,5.21875,5.375,1011200,5.375,5.25,4.188267707824707
29-06-1995,5.1875,5.25,250400,5.25,5.1875,4.138408184051514
30-06-1995,5.21875,5.21875,653600,5.4375,5.4375,4.337850093841553
03-07-1995,5.34375,5.40625,317600,5.46875,5.46875,4.36277961730957
05-07-1995,5.28125,5.4375,124000,5.4375,5.28125,4.213197231292725
06-07-1995,5.21875,5.25,680800,5.28125,5.25,4.188267707824707
07-07-1995,5.21875,5.25,272400,5.25,5.25,4.212338447570801
10-07-1995,5.125,5.28125,638400,5.3125,5.125,4.112044811248779
11-07-1995,5.0,5.125,582000,5.28125,5.15625,4.137116432189941
12-07-1995,5.1875,5.1875,335600,5.28125,5.25,4.2184739112854
13-07-1995,5.21875,5.375,817600,5.4375,5.21875,4.193362236022949
14-07-1995,5.15625,5.25,286000,5.28125,5.1875,4.1682538986206055
17-07-1995,5.15625,5.1875,460400,5.25,5.21875,4.193362236022949
18-07-1995,5.21875,5.21875,77600,5.28125,5.28125,4.243583679199219
19-07-1995,5.1875,5.25,132000,5.28125,5.25,4.2184739112854
20-07-1995,5.25,5.25,379200,5.375,5.28125,4.243583679199219
21-07-1995,5.21875,5.28125,248000,5.375,5.34375,4.29380464553833
24-07-1995,5.3125,5.3125,176400,5.40625,5.375,4.318914890289307
25-07-1995,5.40625,5.40625,344000,5.46875,5.4375,4.369134902954102
26-07-1995,5.34375,5.40625,244000,5.40625,5.34375,4.29380464553833
27-07-1995,5.21875,5.28125,758000,5.375,5.28125,4.243583679199219
28-07-1995,5.25,5.3125,111600,5.375,5.375,4.318914890289307
31-07-1995,5.34375,5.34375,217200,5.4375,5.40625,4.344025135040283
01-08-1995,5.1875,5.375,532800,5.375,5.21875,4.193362236022949
02-08-1995,5.1875,5.21875,302000,5.25,5.21875,4.193362236022949
03-08-1995,5.125,5.1875,552400,5.34375,5.34375,4.29380464553833
04-08-1995,5.28125,5.34375,558800,5.34375,5.34375,4.29380464553833
07-08-1995,5.34375,5.375,101600,5.40625,5.375,4.318914890289307
08-08-1995,5.34375,5.40625,305200,5.4375,5.34375,4.29380464553833
09-08-1995,5.3125,5.40625,703200,5.40625,5.3125,4.268694877624512
10-08-1995,5.1875,5.3125,166000,5.34375,5.1875,4.1682538986206055
11-08-1995,5.15625,5.15625,349600,5.3125,5.3125,4.268694877624512
14-08-1995,5.25,5.34375,134400,5.34375,5.25,4.2184739112854
15-08-1995,5.25,5.3125,108800,5.34375,5.25,4.2184739112854
16-08-1995,5.125,5.21875,242000,5.21875,5.21875,4.193362236022949
17-08-1995,5.1875,5.1875,371600,5.3125,5.28125,4.243583679199219
18-08-1995,5.28125,5.28125,542400,5.5,5.40625,4.344025135040283
21-08-1995,5.40625,5.46875,575600,5.5,5.40625,4.344025135040283
22-08-1995,5.4375,5.4375,362400,5.53125,5.53125,4.444464683532715
23-08-1995,5.5625,5.5625,317600,5.71875,5.625,4.5197930335998535
24-08-1995,5.46875,5.59375,2007200,5.625,5.5,4.419351577758789
25-08-1995,5.5,5.5,160000,5.53125,5.5,4.419351577758789
28-08-1995,5.46875,5.5,280000,5.5625,5.53125,4.444464683532715
29-08-1995,5.5,5.53125,56400,5.5625,5.53125,4.444464683532715
30-08-1995,5.625,5.625,290400,5.65625,5.65625,4.5449042320251465
31-08-1995,5.6875,5.6875,116800,5.84375,5.8125,4.670454025268555
01-09-1995,5.84375,5.84375,431200,5.96875,5.96875,4.7960028648376465
05-09-1995,5.90625,5.96875,545200,6.03125,6.03125,4.8462233543396
06-09-1995,5.90625,5.96875,415600,6.0,6.0,4.821114540100098
07-09-1995,5.78125,6.0,284000,6.03125,6.03125,4.8462233543396
08-09-1995,5.9375,6.03125,248000,6.09375,5.9375,4.7708940505981445
11-09-1995,5.9375,5.96875,230800,6.03125,6.03125,4.8462233543396
12-09-1995,5.90625,6.0,312400,6.15625,6.15625,4.946664810180664
13-09-1995,6.03125,6.125,547600,6.125,6.0625,4.871333122253418
14-09-1995,5.9375,6.03125,348000,6.09375,6.09375,4.896443843841553
15-09-1995,6.0625,6.0625,221200,6.1875,6.1875,4.971773624420166
18-09-1995,6.125,6.15625,490000,6.34375,6.21875,4.996883392333984
19-09-1995,6.0,6.15625,504800,6.1875,6.15625,4.946664810180664
20-09-1995,6.0,6.125,284800,6.125,6.0,4.821114540100098
21-09-1995,5.9375,6.0625,451200,6.0625,6.03125,4.8462233543396
22-09-1995,5.78125,6.03125,143600,6.03125,5.875,4.720671653747559
25-09-1995,5.75,5.84375,183200,5.84375,5.78125,4.645345687866211
26-09-1995,5.65625,5.78125,232000,5.78125,5.65625,4.5449042320251465
27-09-1995,5.625,5.6875,229200,5.75,5.75,4.620234966278076
28-09-1995,5.625,5.8125,263600,5.96875,5.625,4.5197930335998535
29-09-1995,5.4375,5.59375,635600,5.59375,5.4375,4.369134902954102
02-10-1995,5.4375,5.46875,548400,5.6875,5.59375,4.494685649871826
03-10-1995,5.5625,5.5625,304400,5.6875,5.65625,4.5449042320251465
04-10-1995,5.5625,5.625,230800,5.65625,5.65625,4.5449042320251465
05-10-1995,5.5,5.625,76800,5.625,5.53125,4.444464683532715
06-10-1995,5.5,5.5,259200,5.5625,5.5625,4.469573497772217
09-10-1995,5.5,5.59375,48000,5.59375,5.5,4.419351577758789
10-10-1995,5.375,5.46875,109600,5.46875,5.375,4.318914890289307
11-10-1995,5.34375,5.375,166000,5.40625,5.34375,4.317903518676758
12-10-1995,5.34375,5.375,620000,5.5625,5.5,4.450403213500977
13-10-1995,5.5,5.5,227200,5.59375,5.53125,4.475691318511963
16-10-1995,5.40625,5.53125,188800,5.53125,5.46875,4.425118446350098
17-10-1995,5.40625,5.4375,398400,5.5,5.5,4.450403213500977
18-10-1995,5.25,5.4375,1966400,5.46875,5.25,4.248114585876465
19-10-1995,5.21875,5.21875,1503600,5.3125,5.21875,4.2228264808654785
20-10-1995,5.125,5.25,333600,5.25,5.125,4.146968364715576
23-10-1995,5.0,5.15625,608000,5.15625,5.0,4.045820713043213
24-10-1995,4.90625,5.0,1186800,5.0,4.9375,3.995246171951294
25-10-1995,4.71875,4.9375,658400,4.9375,4.71875,3.8182449340820312
26-10-1995,4.6875,4.75,439600,4.8125,4.71875,3.8182449340820312
27-10-1995,4.71875,4.71875,352000,4.875,4.875,3.944678783416748
30-10-1995,4.9375,4.9375,646800,5.0,4.96875,4.020536422729492
31-10-1995,4.96875,5.0,314800,5.03125,5.0,4.045820713043213
01-11-1995,5.0,5.0,390800,5.03125,5.0,4.045820713043213
02-11-1995,4.9375,4.96875,42800,5.0,4.9375,3.995246171951294
03-11-1995,4.875,4.875,165600,4.96875,4.96875,4.020536422729492
06-11-1995,4.90625,4.96875,63600,4.96875,4.90625,3.969963312149048
07-11-1995,4.9375,4.9375,476400,5.03125,5.03125,4.071107387542725
08-11-1995,4.875,4.96875,907200,5.0,5.0,4.045820713043213
09-11-1995,5.03125,5.09375,1176400,5.15625,5.03125,4.071107387542725
10-11-1995,4.90625,5.03125,550000,5.03125,4.90625,3.969963312149048
13-11-1995,4.9375,4.96875,446800,5.09375,5.09375,4.121681213378906
14-11-1995,4.9375,5.03125,1045600,5.0625,4.96875,4.020536422729492
15-11-1995,4.96875,4.96875,228000,5.03125,5.0,4.045820713043213
16-11-1995,5.03125,5.03125,1046400,5.4375,5.375,4.349257946014404
17-11-1995,5.375,5.40625,906800,5.40625,5.40625,4.374545574188232
20-11-1995,5.1875,5.40625,585600,5.40625,5.1875,4.19753885269165
21-11-1995,5.1875,5.21875,363200,5.375,5.34375,4.323970794677734
22-11-1995,5.34375,5.375,432800,5.40625,5.40625,4.374545574188232
24-11-1995,5.3125,5.40625,229200,5.40625,5.3125,4.2986884117126465
27-11-1995,5.125,5.21875,851200,5.21875,5.1875,4.19753885269165
28-11-1995,5.1875,5.1875,315200,5.28125,5.25,4.248114585876465
29-11-1995,5.21875,5.28125,28800,5.28125,5.21875,4.2228264808654785
30-11-1995,5.1875,5.28125,311200,5.28125,5.25,4.248114585876465
01-12-1995,5.25,5.25,308400,5.34375,5.28125,4.27340030670166
04-12-1995,5.125,5.3125,1056000,5.3125,5.3125,4.2986884117126465
05-12-1995,5.3125,5.3125,461200,5.375,5.375,4.349257946014404
06-12-1995,5.40625,5.40625,685200,5.4375,5.4375,4.399834632873535
07-12-1995,5.4375,5.4375,720400,5.5,5.5,4.450403213500977
08-12-1995,5.4375,5.46875,18838800,5.65625,5.65625,4.576836109161377
11-12-1995,5.71875,5.8125,5631200,5.875,5.875,4.753841400146484
12-12-1995,5.8125,5.875,2874000,5.90625,5.875,4.753841400146484
13-12-1995,5.84375,5.875,3176800,6.09375,6.0,4.8549885749816895
14-12-1995,5.90625,6.03125,2280000,6.09375,5.90625,4.779128074645996
15-12-1995,5.875,6.1875,1721200,6.21875,6.0,4.8549885749816895
18-12-1995,5.8125,5.9375,974000,5.96875,5.96875,4.82969856262207
19-12-1995,5.875,5.96875,876000,6.0625,6.0625,4.905559062957764
20-12-1995,6.03125,6.0625,2001200,6.21875,6.03125,4.88027286529541
21-12-1995,6.0,6.03125,1896800,6.125,6.03125,4.88027286529541
22-12-1995,5.9375,6.09375,1115600,6.15625,6.03125,4.88027286529541
26-12-1995,6.03125,6.09375,490800,6.09375,6.03125,4.88027286529541
27-12-1995,5.9375,6.03125,582000,6.03125,5.9375,4.804412364959717
28-12-1995,5.90625,5.90625,1150800,6.15625,6.15625,4.981417655944824
29-12-1995,5.9375,6.1875,677200,6.1875,6.0,4.8549885749816895
02-01-1996,6.03125,6.0625,579600,6.125,6.09375,4.930846691131592
03-01-1996,5.875,6.125,1148000,6.125,5.96875,4.82969856262207
04-01-1996,5.9375,5.96875,1644000,6.0625,5.96875,4.82969856262207
05-01-1996,5.9375,5.9375,680800,6.09375,6.0625,4.905559062957764
08-01-1996,6.0625,6.0625,779200,6.125,6.125,4.956131935119629
09-01-1996,5.9375,6.15625,948400,6.15625,6.0,4.8549885749816895
10-01-1996,5.84375,6.0,516400,6.03125,5.96875,4.82969856262207
11-01-1996,5.6875,5.8125,1618400,5.8125,5.78125,4.683865070343018
12-01-1996,5.75,5.75,555200,5.8125,5.8125,4.709186553955078
15-01-1996,5.75,5.875,1159200,5.875,5.75,4.658547878265381
16-01-1996,5.71875,5.75,1683200,5.8125,5.75,4.658547878265381
17-01-1996,5.59375,5.75,2281600,5.78125,5.75,4.658547878265381
18-01-1996,5.71875,5.75,504000,5.78125,5.78125,4.683865070343018
19-01-1996,5.75,5.8125,803200,5.84375,5.75,4.658547878265381
22-01-1996,5.78125,5.78125,545600,5.875,5.875,4.759823322296143
23-01-1996,5.78125,5.84375,426400,5.90625,5.78125,4.683865070343018
24-01-1996,5.78125,5.8125,539600,5.96875,5.875,4.759823322296143
25-01-1996,5.875,5.875,693600,5.96875,5.9375,4.810458660125732
26-01-1996,5.875,5.90625,1880000,5.90625,5.875,4.759823322296143
29-01-1996,5.875,5.90625,1636800,6.0,6.0,4.861094951629639
30-01-1996,5.96875,6.0,970800,6.03125,6.03125,4.886413097381592
31-01-1996,5.96875,6.03125,650000,6.125,6.09375,4.937049865722656
01-02-1996,6.125,6.125,2182400,6.3125,6.21875,5.038320541381836
02-02-1996,6.125,6.15625,1204000,6.25,6.15625,4.987685680389404
05-02-1996,6.0625,6.09375,923200,6.15625,6.09375,4.937049865722656
06-02-1996,6.03125,6.09375,938400,6.125,6.03125,4.886413097381592
07-02-1996,6.0625,6.09375,838800,6.15625,6.125,4.962368965148926
08-02-1996,6.125,6.125,705600,6.25,6.1875,5.013002872467041
09-02-1996,6.125,6.1875,1770400,6.28125,6.25,5.063641548156738
12-02-1996,6.15625,6.25,4923200,6.65625,6.53125,5.291505336761475
13-02-1996,6.25,6.59375,3442800,6.59375,6.34375,5.1395955085754395
14-02-1996,6.375,6.375,1570000,6.625,6.5625,5.3168230056762695
15-02-1996,6.53125,6.53125,1637600,6.9375,6.90625,5.595321178436279
16-02-1996,6.65625,7.125,2182000,7.125,6.75,5.468731880187988
20-02-1996,6.5625,6.625,421200,6.71875,6.625,5.36746072769165
21-02-1996,6.53125,6.5625,1553600,6.71875,6.71875,5.4434123039245605
22-02-1996,6.59375,6.6875,1300800,6.75,6.6875,5.418095111846924
23-02-1996,6.5625,6.65625,660000,6.75,6.71875,5.4434123039245605
26-02-1996,6.5625,6.625,556400,6.65625,6.59375,5.3421406745910645
27-02-1996,6.5,6.53125,532800,6.625,6.59375,5.3421406745910645
28-02-1996,6.40625,6.59375,2225600,6.71875,6.40625,5.190229892730713
29-02-1996,6.1875,6.4375,956000,6.4375,6.25,5.063641548156738
01-03-1996,6.25,6.25,402800,6.34375,6.25,5.063641548156738
04-03-1996,6.1875,6.25,809200,6.34375,6.3125,5.114278793334961
05-03-1996,6.15625,6.25,574000,6.25,6.25,5.063641548156738
06-03-1996,6.1875,6.21875,830000,6.40625,6.40625,5.190229892730713
07-03-1996,6.3125,6.375,1132000,6.40625,6.375,5.164915084838867
08-03-1996,6.1875,6.1875,278400,6.28125,6.21875,5.038320541381836
11-03-1996,6.09375,6.1875,1366400,6.1875,6.15625,4.987685680389404
12-03-1996,6.09375,6.125,1108400,6.15625,6.125,4.962368965148926
13-03-1996,6.125,6.125,1038800,6.1875,6.1875,5.013002872467041
14-03-1996,6.25,6.25,2724800,6.40625,6.3125,5.114278793334961
15-03-1996,6.0,6.25,1051600,6.25,6.0625,4.9117302894592285
18-03-1996,6.0625,6.09375,4547200,6.375,6.375,5.164915084838867
19-03-1996,6.34375,6.375,473600,6.4375,6.34375,5.1395955085754395
20-03-1996,6.1875,6.375,223600,6.375,6.1875,5.013002872467041
21-03-1996,6.125,6.1875,936800,6.28125,6.125,4.962368965148926
22-03-1996,6.09375,6.15625,1019600,6.1875,6.09375,4.937049865722656
25-03-1996,6.0625,6.0625,907200,6.28125,6.28125,5.088960647583008
26-03-1996,6.25,6.28125,216800,6.3125,6.3125,5.114278793334961
27-03-1996,6.40625,6.5,1842000,6.59375,6.53125,5.291505336761475
28-03-1996,6.53125,6.53125,1270000,6.65625,6.65625,5.392777919769287
29-03-1996,6.5625,6.59375,1343600,6.625,6.59375,5.3421406745910645
01-04-1996,6.5625,6.59375,752800,6.6875,6.6875,5.418095111846924
02-04-1996,6.65625,6.71875,1116400,6.875,6.84375,5.544684410095215
03-04-1996,6.71875,6.78125,1519600,6.96875,6.9375,5.620641708374023
04-04-1996,6.75,6.9375,796800,6.9375,6.875,5.57000732421875
08-04-1996,6.625,6.84375,1262800,6.84375,6.8125,5.519367694854736
09-04-1996,6.8125,6.8125,923200,6.90625,6.875,5.57000732421875
10-04-1996,6.78125,6.8125,1358000,6.96875,6.9375,5.620641708374023
11-04-1996,6.84375,6.875,932000,6.9375,6.875,5.5760345458984375
12-04-1996,6.59375,6.875,1120000,6.875,6.65625,5.398613452911377
15-04-1996,6.5625,6.59375,948000,6.78125,6.75,5.474651336669922
16-04-1996,6.6875,6.78125,846000,6.78125,6.75,5.474651336669922
17-04-1996,6.65625,6.75,1494800,6.75,6.6875,5.423959255218506
18-04-1996,6.5,6.6875,1113200,6.6875,6.53125,5.297232151031494
19-04-1996,6.5,6.5,884400,6.6875,6.65625,5.398613452911377
22-04-1996,6.65625,6.65625,2457600,6.90625,6.8125,5.525344371795654
23-04-1996,6.78125,6.9375,1053200,7.0,6.90625,5.601377487182617
24-04-1996,6.90625,6.90625,1069200,7.15625,7.03125,5.702759265899658
25-04-1996,6.9375,6.96875,536800,7.0,6.9375,5.6267242431640625
26-04-1996,6.78125,6.875,486400,6.9375,6.78125,5.499995231628418
29-04-1996,6.71875,6.71875,705200,6.875,6.78125,5.499995231628418
30-04-1996,6.59375,6.8125,779600,6.875,6.625,5.373269081115723
01-05-1996,6.5,6.625,808400,6.75,6.5,5.271887302398682
02-05-1996,6.46875,6.5625,373600,6.59375,6.5625,5.322576999664307
03-05-1996,6.53125,6.625,680000,6.625,6.625,5.373269081115723
06-05-1996,6.5625,6.59375,504400,6.65625,6.5625,5.322576999664307
07-05-1996,6.125,6.625,1395600,6.65625,6.21875,5.043774604797363
08-05-1996,6.1875,6.25,620400,6.34375,6.25,5.069120407104492
09-05-1996,6.25,6.25,332000,6.375,6.375,5.170504570007324
10-05-1996,6.25,6.375,818400,6.40625,6.3125,5.119814395904541
13-05-1996,6.21875,6.25,796000,6.3125,6.25,5.069120407104492
14-05-1996,6.15625,6.25,1208800,6.28125,6.15625,4.993082523345947
15-05-1996,6.09375,6.1875,2372400,6.3125,6.3125,5.119814395904541
16-05-1996,6.25,6.34375,379600,6.34375,6.28125,5.0944671630859375
17-05-1996,6.1875,6.25,1017600,6.28125,6.25,5.069120407104492
20-05-1996,6.25,6.25,425600,6.375,6.34375,5.145157814025879
21-05-1996,6.3125,6.3125,2660400,6.46875,6.4375,5.221194267272949
22-05-1996,6.4375,6.4375,552000,6.5,6.5,5.271887302398682
23-05-1996,6.53125,6.5625,1154800,6.75,6.5625,5.322576999664307
24-05-1996,6.4375,6.5,1701200,6.53125,6.5,5.271887302398682
28-05-1996,6.359375,6.53125,554000,6.53125,6.4375,5.221194267272949
29-05-1996,6.3125,6.40625,613600,6.40625,6.375,5.170504570007324
30-05-1996,6.25,6.375,604000,6.375,6.3125,5.119814395904541
31-05-1996,6.25,6.34375,493200,6.375,6.3125,5.119814395904541
03-06-1996,6.28125,6.3125,211200,6.3125,6.3125,5.119814395904541
04-06-1996,6.375,6.40625,654800,6.46875,6.375,5.170504570007324
05-06-1996,6.40625,6.4375,679600,6.46875,6.4375,5.221194267272949
06-06-1996,6.25,6.4375,278800,6.4375,6.28125,5.0944671630859375
07-06-1996,6.15625,6.21875,702800,6.34375,6.34375,5.145157814025879
10-06-1996,6.3125,6.34375,241200,6.34375,6.3125,5.119814395904541
11-06-1996,6.28125,6.3125,761600,6.375,6.3125,5.119814395904541
12-06-1996,6.25,6.3125,1385200,6.3125,6.28125,5.0944671630859375
13-06-1996,6.09375,6.28125,985600,6.28125,6.1875,5.018428802490234
14-06-1996,6.15625,6.1875,1093200,6.21875,6.15625,4.993082523345947
17-06-1996,6.0625,6.09375,586400,6.125,6.0625,4.917047500610352
18-06-1996,5.96875,6.0,1450000,6.125,5.96875,4.841010093688965
19-06-1996,6.03125,6.03125,1416800,6.15625,6.0625,4.917047500610352
20-06-1996,6.0625,6.09375,1258400,6.125,6.09375,4.942392349243164
21-06-1996,6.0,6.09375,650800,6.09375,6.0,4.866354942321777
24-06-1996,5.96875,6.03125,948000,6.0625,6.0,4.866354942321777
25-06-1996,5.96875,6.03125,2754000,6.25,6.15625,4.993082523345947
26-06-1996,6.21875,6.21875,5256400,6.625,6.625,5.373269081115723
27-06-1996,6.53125,6.59375,4884000,6.75,6.75,5.474651336669922
28-06-1996,6.78125,6.8125,5409200,6.96875,6.96875,5.652068138122559
01-07-1996,6.90625,6.96875,3778800,7.28125,7.28125,5.905524730682373
02-07-1996,7.125,7.15625,2342000,7.25,7.21875,5.854833126068115
03-07-1996,7.125,7.125,1392000,7.21875,7.21875,5.854833126068115
05-07-1996,7.125,7.21875,753600,7.3125,7.28125,5.905524730682373
08-07-1996,7.1875,7.25,924800,7.3125,7.25,5.880181312561035
09-07-1996,7.25,7.25,2440800,7.5625,7.5,6.082943439483643
10-07-1996,7.46875,7.5,3225600,7.65625,7.5625,6.133635997772217
11-07-1996,7.125,7.46875,3954400,7.59375,7.1875,5.835277557373047
12-07-1996,7.125,7.15625,1191200,7.21875,7.15625,5.809903621673584
15-07-1996,7.09375,7.125,1718400,7.34375,7.125,5.784535884857178
16-07-1996,6.5625,7.0625,1854400,7.09375,6.65625,5.403972625732422
17-07-1996,6.6875,6.6875,2270000,6.96875,6.6875,5.429343223571777
18-07-1996,6.65625,6.75,990400,6.8125,6.71875,5.454712390899658
19-07-1996,6.65625,6.6875,1322800,6.71875,6.6875,5.429343223571777
22-07-1996,6.5625,6.6875,1101600,6.6875,6.59375,5.353232383728027
23-07-1996,6.53125,6.625,2303200,6.8125,6.8125,5.530828475952148
24-07-1996,6.625,6.75,327600,6.75,6.625,5.378602981567383
25-07-1996,6.375,6.625,762800,6.78125,6.375,5.1756391525268555
26-07-1996,6.40625,6.40625,462800,6.5625,6.53125,5.302490234375
29-07-1996,6.4375,6.5,676800,6.53125,6.5,5.2771220207214355
30-07-1996,6.25,6.46875,1988800,6.53125,6.3125,5.124896049499512
31-07-1996,6.125,6.3125,1733600,6.3125,6.25,5.074153423309326
01-08-1996,6.25,6.25,1422800,6.375,6.3125,5.124896049499512
02-08-1996,6.3125,6.3125,1042800,6.46875,6.46875,5.251748561859131
05-08-1996,6.34375,6.46875,503200,6.59375,6.59375,5.353232383728027
06-08-1996,6.5,6.59375,495200,6.65625,6.65625,5.403972625732422
07-08-1996,6.75,6.75,1542800,6.84375,6.84375,5.556199073791504
08-08-1996,6.75,6.84375,767600,6.875,6.84375,5.556199073791504
09-08-1996,6.71875,6.875,634400,6.875,6.71875,5.454712390899658
12-08-1996,6.625,6.75,167600,6.75,6.625,5.378602981567383
13-08-1996,6.625,6.65625,389600,6.6875,6.625,5.378602981567383
14-08-1996,6.625,6.625,333200,6.65625,6.65625,5.403972625732422
15-08-1996,6.625,6.625,331600,6.75,6.75,5.480085849761963
16-08-1996,6.625,6.6875,329600,6.71875,6.71875,5.454712390899658
19-08-1996,6.625,6.65625,339200,6.78125,6.78125,5.505457878112793
20-08-1996,6.6875,6.8125,928800,6.8125,6.75,5.480085849761963
21-08-1996,6.59375,6.71875,837600,6.71875,6.65625,5.403972625732422
22-08-1996,6.59375,6.65625,433200,6.6875,6.65625,5.403972625732422
23-08-1996,6.5625,6.59375,228800,6.65625,6.625,5.378602981567383
26-08-1996,6.5625,6.625,488000,6.65625,6.65625,5.403972625732422
27-08-1996,6.5,6.625,669600,6.625,6.5,5.2771220207214355
28-08-1996,6.46875,6.5,392800,6.5,6.46875,5.251748561859131
29-08-1996,6.4375,6.46875,499200,6.5,6.46875,5.251748561859131
30-08-1996,6.375,6.4375,160800,6.46875,6.46875,5.251748561859131
03-09-1996,6.5,6.5,1298800,6.59375,6.5625,5.327860355377197
04-09-1996,6.40625,6.53125,356400,6.53125,6.46875,5.251748561859131
05-09-1996,6.375,6.4375,382800,6.5,6.4375,5.226376533508301
06-09-1996,6.3125,6.4375,2431600,6.59375,6.46875,5.251748561859131
09-09-1996,6.40625,6.46875,501200,6.53125,6.5,5.2771220207214355
10-09-1996,6.46875,6.5,488400,6.53125,6.46875,5.251748561859131
11-09-1996,6.46875,6.46875,1305600,6.65625,6.5625,5.327860355377197
12-09-1996,6.28125,6.53125,1240800,6.53125,6.3125,5.124896049499512
13-09-1996,6.125,6.3125,1250400,6.3125,6.125,4.972671031951904
16-09-1996,6.03125,6.125,1839600,6.125,6.0625,4.921928405761719
17-09-1996,5.71875,5.875,3505600,5.9375,5.875,4.769704818725586
18-09-1996,5.875,5.90625,2286800,6.09375,6.0,4.87118673324585
19-09-1996,5.96875,5.96875,2160800,6.09375,6.03125,4.896556854248047
20-09-1996,6.03125,6.03125,601200,6.09375,6.03125,4.896556854248047
23-09-1996,6.0,6.0625,1021600,6.0625,6.03125,4.896556854248047
24-09-1996,5.84375,6.0,1552000,6.0625,5.90625,4.795073986053467
25-09-1996,5.78125,5.90625,1691200,6.0,6.0,4.87118673324585
26-09-1996,6.03125,6.03125,856400,6.15625,6.125,4.972671031951904
27-09-1996,6.0,6.0625,1036000,6.09375,6.03125,4.896556854248047
30-09-1996,6.0,6.0,1134400,6.21875,6.21875,5.048781394958496
01-10-1996,6.25,6.25,956400,6.3125,6.3125,5.124896049499512
02-10-1996,6.28125,6.3125,774800,6.40625,6.375,5.1756391525268555
03-10-1996,6.28125,6.375,691600,6.375,6.28125,5.099524974822998
04-10-1996,6.28125,6.34375,592000,6.40625,6.28125,5.099524974822998
07-10-1996,6.25,6.28125,1552000,6.4375,6.40625,5.201007843017578
08-10-1996,6.34375,6.40625,1220000,6.46875,6.375,5.1756391525268555
09-10-1996,6.25,6.375,772800,6.375,6.3125,5.124896049499512
10-10-1996,5.9375,6.21875,2254800,6.21875,6.0,4.876979827880859
11-10-1996,5.9375,6.0,1258800,6.0625,5.9375,4.826181411743164
14-10-1996,5.8125,5.9375,2306000,5.96875,5.84375,4.749978065490723
15-10-1996,5.84375,5.875,1424800,6.0,6.0,4.876979827880859
16-10-1996,5.96875,6.0,1880000,6.09375,6.09375,4.953184127807617
17-10-1996,6.125,6.15625,1636400,6.25,6.25,5.080190181732178
18-10-1996,6.21875,6.25,1060800,6.40625,6.375,5.181795120239258
21-10-1996,6.25,6.34375,722000,6.375,6.25,5.080190181732178
22-10-1996,6.15625,6.25,1494400,6.3125,6.1875,5.029386520385742
23-10-1996,5.96875,6.15625,2842800,6.15625,6.0,4.876979827880859
24-10-1996,6.0,6.03125,1593200,6.09375,6.0625,4.927783489227295
25-10-1996,6.09375,6.09375,1020000,6.21875,6.21875,5.0547871589660645
28-10-1996,6.09375,6.15625,995600,6.1875,6.09375,4.953184127807617
29-10-1996,6.03125,6.09375,1533600,6.15625,6.15625,5.0039849281311035
30-10-1996,6.15625,6.15625,3300400,6.375,6.375,5.181795120239258
31-10-1996,6.375,6.375,1713200,6.53125,6.4375,5.232593536376953
01-11-1996,6.25,6.4375,1226800,6.46875,6.28125,5.1055908203125
04-11-1996,6.1875,6.25,1135200,6.28125,6.1875,5.029386520385742
05-11-1996,6.1875,6.25,730800,6.25,6.21875,5.0547871589660645
06-11-1996,6.125,6.21875,395600,6.21875,6.125,4.978587627410889
07-11-1996,6.0,6.0,1647200,6.0625,6.0,4.876979827880859
08-11-1996,6.0,6.0625,1212400,6.15625,6.15625,5.0039849281311035
11-11-1996,6.15625,6.1875,1075600,6.28125,6.25,5.080190181732178
12-11-1996,6.25,6.3125,1186400,6.375,6.25,5.080190181732178
13-11-1996,6.25,6.28125,1387200,6.28125,6.28125,5.1055908203125
14-11-1996,6.28125,6.28125,2227200,6.3125,6.3125,5.130992889404297
15-11-1996,6.21875,6.28125,1321600,6.34375,6.25,5.080190181732178
18-11-1996,6.1875,6.25,682000,6.25,6.25,5.080190181732178
19-11-1996,6.21875,6.25,2281600,6.40625,6.40625,5.2071943283081055
20-11-1996,6.5625,6.75,3805200,6.78125,6.78125,5.512005805969238
21-11-1996,6.59375,6.78125,1956000,6.78125,6.625,5.3850016593933105
