Date,Low,Open,Volume,High,Close,Adjusted Close
17-03-1980,1.6796879768371582,0.0,164800,1.75,1.6875,0.5821938514709473
18-03-1980,1.6328129768371582,0.0,188800,1.6875,1.65625,0.5714126229286194
19-03-1980,1.6640629768371582,0.0,84800,1.6875,1.6796879768371582,0.5794988870620728
20-03-1980,1.6484379768371582,0.0,328000,1.6875,1.6875,0.5821938514709473
21-03-1980,1.6640629768371582,0.0,249600,1.6796879768371582,1.6640629768371582,0.5741083025932312
24-03-1980,1.640625,0.0,142400,1.6796879768371582,1.6796879768371582,0.5794988870620728
25-03-1980,1.6640629768371582,0.0,249600,1.6875,1.6640629768371582,0.5741083025932312
26-03-1980,1.6484379768371582,0.0,228800,1.6875,1.65625,0.5714126229286194
27-03-1980,1.640625,0.0,268800,1.65625,1.6484379768371582,0.5687177777290344
28-03-1980,1.6484379768371582,0.0,132800,1.671875,1.65625,0.5714126229286194
31-03-1980,1.671875,0.0,363200,1.796875,1.796875,0.6199289560317993
01-04-1980,1.75,0.0,276800,1.8046879768371582,1.765625,0.6091474294662476
02-04-1980,1.7109379768371582,0.0,86400,1.765625,1.7109379768371582,0.5902800559997559
03-04-1980,1.6953129768371582,0.0,156800,1.7265629768371582,1.71875,0.5929750204086304
07-04-1980,1.6875,0.0,195200,1.71875,1.6953129768371582,0.5848894119262695
08-04-1980,1.6875,0.0,414400,1.71875,1.7109379768371582,0.5902800559997559
09-04-1980,1.6796879768371582,0.0,432000,1.7109379768371582,1.6875,0.5821938514709473
10-04-1980,1.6796879768371582,0.0,544000,1.703125,1.6875,0.5821938514709473
11-04-1980,1.6953129768371582,0.0,372800,1.734375,1.734375,0.5983660221099854
14-04-1980,1.7265629768371582,0.0,107200,1.75,1.734375,0.5983660221099854
15-04-1980,1.7265629768371582,0.0,110400,1.75,1.7265629768371582,0.5956708788871765
16-04-1980,1.734375,0.0,316800,1.75,1.734375,0.5983660221099854
17-04-1980,1.734375,0.0,108800,1.75,1.734375,0.5983660221099854
18-04-1980,1.734375,0.0,96000,1.75,1.7421879768371582,0.6010618805885315
21-04-1980,1.734375,0.0,128000,1.7421879768371582,1.734375,0.5983660221099854
22-04-1980,1.7265629768371582,0.0,99200,1.765625,1.765625,0.6091474294662476
23-04-1980,1.765625,0.0,123200,1.796875,1.765625,0.6091474294662476
24-04-1980,1.78125,0.0,152000,1.8125,1.7890629768371582,0.617233395576477
25-04-1980,1.7734379768371582,0.0,67200,1.8125,1.8046879768371582,0.6226244568824768
28-04-1980,1.765625,0.0,361600,1.8046879768371582,1.78125,0.614538311958313
29-04-1980,1.7890629768371582,0.0,164800,1.8359379768371582,1.8125,0.6253196597099304
30-04-1980,1.796875,0.0,152000,1.84375,1.8359379768371582,0.6334062218666077
01-05-1980,1.8203129768371582,0.0,312000,1.8671879768371582,1.859375,0.641491711139679
02-05-1980,1.875,0.0,476800,1.953125,1.9453129768371582,0.6711403131484985
05-05-1980,1.90625,0.0,828800,1.9296879768371582,1.9296879768371582,0.6657503247261047
06-05-1980,1.8828129768371582,0.0,216000,1.90625,1.8828129768371582,0.6495775580406189
07-05-1980,1.8671879768371582,0.0,209600,1.90625,1.890625,0.6522728800773621
08-05-1980,1.8984379768371582,0.0,158400,1.9140629768371582,1.8984379768371582,0.6549684405326843
09-05-1980,1.8671879768371582,0.0,129600,1.8984379768371582,1.8671879768371582,0.6441871523857117
12-05-1980,1.8671879768371582,0.0,190400,1.875,1.8671879768371582,0.6441871523857117
13-05-1980,1.859375,0.0,70400,1.875,1.875,0.6468820571899414
14-05-1980,1.859375,0.0,129600,1.875,1.875,0.6468820571899414
15-05-1980,1.8125,0.0,240000,1.875,1.859375,0.641491711139679
16-05-1980,1.765625,0.0,120000,1.84375,1.765625,0.6091474294662476
19-05-1980,1.765625,0.0,148800,1.7890629768371582,1.7890629768371582,0.617233395576477
20-05-1980,1.7890629768371582,0.0,158400,1.8359379768371582,1.8359379768371582,0.6334062218666077
21-05-1980,1.8203129768371582,0.0,532800,1.8671879768371582,1.8359379768371582,0.6334062218666077
22-05-1980,1.796875,0.0,571200,1.828125,1.828125,0.6307101249694824
23-05-1980,1.796875,0.0,224000,1.828125,1.828125,0.6307101249694824
27-05-1980,1.8125,0.0,316800,1.8671879768371582,1.828125,0.6307101249694824
28-05-1980,1.8359379768371582,0.0,542400,1.8671879768371582,1.8671879768371582,0.6441871523857117
29-05-1980,1.8515629768371582,0.0,187200,1.875,1.8515629768371582,0.6387964487075806
30-05-1980,1.84375,0.0,227200,1.890625,1.890625,0.6522728800773621
02-06-1980,1.875,0.0,192000,1.90625,1.890625,0.6522728800773621
03-06-1980,1.90625,0.0,320000,1.953125,1.921875,0.6630542278289795
04-06-1980,1.921875,0.0,123200,1.953125,1.9296879768371582,0.6657503247261047
05-06-1980,1.9375,0.0,467200,2.0,1.96875,0.679226279258728
06-06-1980,1.9375,0.0,120000,1.96875,1.9375,0.6684449911117554
09-06-1980,1.9296879768371582,0.0,83200,1.953125,1.9375,0.6684449911117554
10-06-1980,1.953125,0.0,203200,1.9921879768371582,1.9921879768371582,0.6873128414154053
11-06-1980,1.9765629768371582,0.0,70400,1.9921879768371582,1.9921879768371582,0.6873128414154053
12-06-1980,1.9609379768371582,0.0,128000,1.984375,1.96875,0.679226279258728
13-06-1980,1.953125,0.0,176000,1.984375,1.984375,0.6846171617507935
16-06-1980,1.953125,0.0,251200,1.984375,1.9765629768371582,0.6819214820861816
17-06-1980,1.953125,0.0,155200,1.9765629768371582,1.953125,0.6738356947898865
18-06-1980,1.9453129768371582,0.0,147200,1.9609379768371582,1.9609379768371582,0.6765309572219849
19-06-1980,1.9375,0.0,187200,1.9609379768371582,1.9375,0.6684449911117554
20-06-1980,1.9375,0.0,300800,1.9609379768371582,1.953125,0.6738356947898865
23-06-1980,1.9375,0.0,128000,1.953125,1.9375,0.6684449911117554
24-06-1980,1.9375,0.0,452800,1.953125,1.9375,0.6684449911117554
25-06-1980,1.9375,0.0,142400,1.9609379768371582,1.9609379768371582,0.6765309572219849
26-06-1980,1.9296879768371582,0.0,152000,1.953125,1.9375,0.6684449911117554
27-06-1980,1.9296879768371582,0.0,737600,1.9375,1.9375,0.6684449911117554
30-06-1980,1.84375,0.0,265600,1.9375,1.875,0.6468820571899414
01-07-1980,1.84375,0.0,1777600,1.890625,1.890625,0.6522728800773621
02-07-1980,1.875,0.0,489600,1.890625,1.8828129768371582,0.6495775580406189
03-07-1980,1.890625,0.0,136000,1.921875,1.8984379768371582,0.6549684405326843
07-07-1980,1.9140629768371582,0.0,193600,1.9375,1.921875,0.6630542278289795
08-07-1980,1.9375,0.0,206400,1.953125,1.953125,0.6738356947898865
09-07-1980,1.9375,0.0,321600,1.9921879768371582,1.9921879768371582,0.6873128414154053
10-07-1980,1.96875,0.0,627200,2.023437976837158,2.0,0.690007746219635
11-07-1980,1.984375,0.0,158400,2.015625,2.015625,0.6953983902931213
14-07-1980,2.0,0.0,190400,2.054687976837158,2.054687976837158,0.7088751196861267
15-07-1980,2.046875,0.0,291200,2.078125,2.070312976837158,0.7142661809921265
16-07-1980,2.046875,0.0,859200,2.070312976837158,2.070312976837158,0.7142661809921265
17-07-1980,2.0625,0.0,480000,2.085937976837158,2.078125,0.7169609665870667
18-07-1980,2.070312976837158,0.0,652800,2.148437976837158,2.132812976837158,0.7358287572860718
21-07-1980,2.132812976837158,0.0,268800,2.15625,2.15625,0.7439144849777222
22-07-1980,2.148437976837158,0.0,350400,2.171875,2.148437976837158,0.7412194013595581
23-07-1980,2.125,0.0,280000,2.15625,2.125,0.7331331968307495
24-07-1980,2.125,0.0,332800,2.140625,2.140625,0.738524317741394
25-07-1980,2.125,0.0,121600,2.140625,2.132812976837158,0.7358287572860718
28-07-1980,2.125,0.0,355200,2.140625,2.140625,0.738524317741394
29-07-1980,2.132812976837158,0.0,188800,2.171875,2.171875,0.7493054270744324
30-07-1980,2.1875,0.0,1552000,2.195312976837158,2.195312976837158,0.7573915719985962
31-07-1980,2.1875,0.0,1233600,2.210937976837158,2.210937976837158,0.7627818584442139
01-08-1980,2.21875,0.0,305600,2.234375,2.226562976837158,0.7681725025177002
04-08-1980,2.21875,0.0,1603200,2.273437976837158,2.273437976837158,0.7843447923660278
05-08-1980,2.226562976837158,0.0,1168000,2.265625,2.25,0.7762588858604431
06-08-1980,2.242187976837158,0.0,254400,2.289062976837158,2.289062976837158,0.7897354364395142
07-08-1980,2.25,0.0,276800,2.273437976837158,2.257812976837158,0.7789542078971863
08-08-1980,2.257812976837158,0.0,598400,2.28125,2.273437976837158,0.7843447923660278
11-08-1980,2.25,0.0,259200,2.257812976837158,2.257812976837158,0.7789542078971863
12-08-1980,2.25,0.0,1137600,2.3125,2.273437976837158,0.7843447923660278
13-08-1980,2.257812976837158,0.0,140800,2.296875,2.265625,0.7816491723060608
14-08-1980,2.25,0.0,126400,2.265625,2.265625,0.7816491723060608
15-08-1980,2.257812976837158,0.0,195200,2.289062976837158,2.257812976837158,0.7789542078971863
18-08-1980,2.203125,0.0,299200,2.25,2.203125,0.7600865960121155
19-08-1980,2.171875,0.0,622400,2.203125,2.179687976837158,0.7520009875297546
20-08-1980,2.148437976837158,0.0,259200,2.195312976837158,2.195312976837158,0.7573915719985962
21-08-1980,2.25,0.0,745600,2.28125,2.265625,0.7816491723060608
22-08-1980,2.257812976837158,0.0,195200,2.28125,2.265625,0.7816491723060608
25-08-1980,2.25,0.0,91200,2.265625,2.25,0.7762588858604431
26-08-1980,2.25,0.0,254400,2.28125,2.265625,0.7816491723060608
27-08-1980,2.21875,0.0,336000,2.257812976837158,2.21875,0.7654774188995361
28-08-1980,2.171875,0.0,212800,2.203125,2.171875,0.7493054270744324
29-08-1980,2.15625,0.0,740800,2.1875,2.171875,0.7493054270744324
02-09-1980,2.171875,0.0,155200,2.195312976837158,2.1875,0.7546959519386292
03-09-1980,2.171875,0.0,1081600,2.265625,2.25,0.7762588858604431
04-09-1980,2.234375,0.0,416000,2.273437976837158,2.25,0.7762588858604431
05-09-1980,2.234375,0.0,731200,2.257812976837158,2.257812976837158,0.7789542078971863
08-09-1980,2.242187976837158,0.0,100800,2.265625,2.242187976837158,0.7735633254051208
09-09-1980,2.234375,0.0,91200,2.242187976837158,2.242187976837158,0.7735633254051208
10-09-1980,2.234375,0.0,83200,2.242187976837158,2.234375,0.7708678841590881
11-09-1980,2.234375,0.0,60800,2.25,2.25,0.7762588858604431
12-09-1980,2.242187976837158,0.0,128000,2.265625,2.265625,0.7816491723060608
15-09-1980,2.25,0.0,236800,2.273437976837158,2.25,0.7762588858604431
16-09-1980,2.25,0.0,96000,2.265625,2.265625,0.7816491723060608
17-09-1980,2.25,0.0,1672000,2.335937976837158,2.328125,0.8032121658325195
18-09-1980,2.335937976837158,0.0,201600,2.367187976837158,2.34375,0.8086028695106506
19-09-1980,2.335937976837158,0.0,124800,2.351562976837158,2.34375,0.8086028695106506
22-09-1980,2.34375,0.0,264000,2.359375,2.351562976837158,0.8112982511520386
23-09-1980,2.335937976837158,0.0,488000,2.375,2.351562976837158,0.8112982511520386
24-09-1980,2.328125,0.0,148800,2.335937976837158,2.328125,0.8032121658325195
25-09-1980,2.296875,0.0,265600,2.328125,2.304687976837158,0.7951258420944214
26-09-1980,2.273437976837158,0.0,352000,2.304687976837158,2.289062976837158,0.7897354364395142
29-09-1980,2.265625,0.0,428800,2.28125,2.28125,0.7870399951934814
30-09-1980,2.265625,0.0,124800,2.289062976837158,2.289062976837158,0.7897354364395142
01-10-1980,2.257812976837158,0.0,100800,2.28125,2.257812976837158,0.7789542078971863
02-10-1980,2.25,0.0,585600,2.273437976837158,2.273437976837158,0.7843447923660278
03-10-1980,2.265625,0.0,180800,2.289062976837158,2.28125,0.7870399951934814
06-10-1980,2.265625,0.0,121600,2.296875,2.265625,0.7816491723060608
07-10-1980,2.25,0.0,459200,2.265625,2.25,0.7762588858604431
08-10-1980,2.242187976837158,0.0,817600,2.28125,2.28125,0.7870399951934814
09-10-1980,2.25,0.0,443200,2.28125,2.265625,0.7816491723060608
10-10-1980,2.203125,0.0,796800,2.234375,2.226562976837158,0.7681725025177002
13-10-1980,2.210937976837158,0.0,97600,2.226562976837158,2.226562976837158,0.7681725025177002
14-10-1980,2.203125,0.0,224000,2.25,2.203125,0.7600865960121155
15-10-1980,2.1875,0.0,113600,2.203125,2.195312976837158,0.7573915719985962
16-10-1980,2.171875,0.0,425600,2.203125,2.1875,0.7546959519386292
17-10-1980,2.15625,0.0,300800,2.1875,2.1875,0.7546959519386292
20-10-1980,2.164062976837158,0.0,150400,2.1875,2.1875,0.7546959519386292
21-10-1980,2.1875,0.0,566400,2.25,2.25,0.7762588858604431
22-10-1980,2.210937976837158,0.0,172800,2.273437976837158,2.234375,0.7708678841590881
23-10-1980,2.234375,0.0,336000,2.265625,2.25,0.7762588858604431
24-10-1980,2.234375,0.0,168000,2.265625,2.265625,0.7816491723060608
27-10-1980,2.234375,0.0,521600,2.25,2.25,0.7762588858604431
28-10-1980,2.234375,0.0,376000,2.265625,2.257812976837158,0.7789542078971863
29-10-1980,2.25,0.0,251200,2.265625,2.265625,0.7816491723060608
30-10-1980,2.257812976837158,0.0,156800,2.273437976837158,2.265625,0.7816491723060608
31-10-1980,2.25,0.0,243200,2.265625,2.265625,0.7816491723060608
03-11-1980,2.226562976837158,0.0,1062400,2.28125,2.28125,0.7870399951934814
05-11-1980,2.273437976837158,0.0,1062400,2.359375,2.28125,0.7870399951934814
06-11-1980,2.28125,0.0,531200,2.3125,2.296875,0.7924304604530334
07-11-1980,2.28125,0.0,579200,2.296875,2.28125,0.7870399951934814
10-11-1980,2.257812976837158,0.0,180800,2.28125,2.273437976837158,0.7843447923660278
11-11-1980,2.265625,0.0,867200,2.28125,2.265625,0.7816491723060608
12-11-1980,2.25,0.0,281600,2.28125,2.273437976837158,0.7843447923660278
13-11-1980,2.257812976837158,0.0,1980800,2.28125,2.273437976837158,0.7843447923660278
14-11-1980,2.273437976837158,0.0,702400,2.304687976837158,2.304687976837158,0.7951258420944214
17-11-1980,2.289062976837158,0.0,1176000,2.34375,2.328125,0.8032121658325195
18-11-1980,2.328125,0.0,164800,2.351562976837158,2.335937976837158,0.8059071898460388
19-11-1980,2.320312976837158,0.0,241600,2.367187976837158,2.359375,0.8139935731887817
20-11-1980,2.34375,0.0,377600,2.421875,2.398437976837158,0.8274706602096558
21-11-1980,2.3125,0.0,209600,2.398437976837158,2.359375,0.8139935731887817
24-11-1980,2.296875,0.0,243200,2.382812976837158,2.34375,0.8086028695106506
25-11-1980,2.296875,0.0,179200,2.351562976837158,2.3125,0.7978214621543884
26-11-1980,2.195312976837158,0.0,377600,2.265625,2.203125,0.7600865960121155
28-11-1980,2.171875,0.0,323200,2.203125,2.1875,0.7546959519386292
01-12-1980,2.179687976837158,0.0,152000,2.203125,2.1875,0.7546959519386292
02-12-1980,2.171875,0.0,244800,2.203125,2.203125,0.7600865960121155
03-12-1980,2.1875,0.0,182400,2.25,2.25,0.7762588858604431
04-12-1980,2.21875,0.0,643200,2.265625,2.25,0.7762588858604431
05-12-1980,2.234375,0.0,235200,2.25,2.242187976837158,0.7735633254051208
08-12-1980,2.1875,0.0,385600,2.21875,2.203125,0.7600865960121155
09-12-1980,2.1875,0.0,528000,2.203125,2.1875,0.7546959519386292
10-12-1980,2.1875,0.0,206400,2.234375,2.195312976837158,0.7573915719985962
11-12-1980,2.15625,0.0,456000,2.203125,2.15625,0.7439144849777222
12-12-1980,2.148437976837158,0.0,57600,2.171875,2.15625,0.7439144849777222
15-12-1980,2.117187976837158,0.0,472000,2.148437976837158,2.117187976837158,0.730438232421875
16-12-1980,2.046875,0.0,131200,2.101562976837158,2.0625,0.7115703821182251
17-12-1980,2.070312976837158,0.0,276800,2.101562976837158,2.085937976837158,0.7196566462516785
18-12-1980,2.0625,0.0,168000,2.078125,2.070312976837158,0.7142661809921265
19-12-1980,2.0625,0.0,504000,2.140625,2.140625,0.738524317741394
22-12-1980,2.125,0.0,384000,2.164062976837158,2.164062976837158,0.746610164642334
23-12-1980,2.140625,0.0,184000,2.1875,2.15625,0.7439144849777222
24-12-1980,2.132812976837158,0.0,1203200,2.242187976837158,2.242187976837158,0.7735633254051208
26-12-1980,2.226562976837158,0.0,97600,2.265625,2.25,0.7762588858604431
29-12-1980,2.234375,0.0,324800,2.304687976837158,2.265625,0.7816491723060608
30-12-1980,2.234375,0.0,1240000,2.328125,2.328125,0.8032121658325195
31-12-1980,2.320312976837158,0.0,928000,2.546875,2.546875,0.8786815404891968
02-01-1981,2.5,0.0,483200,2.546875,2.546875,0.8786815404891968
05-01-1981,2.5,0.0,1252800,2.601562976837158,2.515625,0.8679003715515137
06-01-1981,2.40625,0.0,296000,2.5,2.421875,0.8355563282966614
07-01-1981,2.25,0.0,540800,2.375,2.359375,0.8139935731887817
08-01-1981,2.21875,0.0,680000,2.367187976837158,2.296875,0.7924304604530334
09-01-1981,2.289062976837158,0.0,1307200,2.398437976837158,2.398437976837158,0.8274706602096558
12-01-1981,2.4375,0.0,1108800,2.554687976837158,2.53125,0.873291015625
13-01-1981,2.5,0.0,276800,2.53125,2.515625,0.8679003715515137
14-01-1981,2.5,0.0,1025600,2.578125,2.523437976837158,0.8705962896347046
15-01-1981,2.5,0.0,310400,2.53125,2.515625,0.8679003715515137
16-01-1981,2.507812976837158,0.0,820800,2.640625,2.640625,0.9110251069068909
19-01-1981,2.578125,0.0,768000,2.65625,2.625,0.9056353569030762
20-01-1981,2.640625,0.0,822400,2.671875,2.664062976837158,0.919111967086792
21-01-1981,2.625,0.0,2556800,2.703125,2.6875,0.9271981120109558
22-01-1981,2.609375,0.0,1601600,2.765625,2.640625,0.9110251069068909
23-01-1981,2.578125,0.0,1859200,2.640625,2.625,0.9056353569030762
26-01-1981,2.5625,0.0,329600,2.601562976837158,2.5625,0.8840727210044861
27-01-1981,2.5625,0.0,753600,2.59375,2.585937976837158,0.8921583890914917
28-01-1981,2.578125,0.0,358400,2.648437976837158,2.625,0.9056353569030762
29-01-1981,2.625,0.0,262400,2.6875,2.65625,0.9164166450500488
30-01-1981,2.640625,0.0,358400,2.695312976837158,2.664062976837158,0.919111967086792
02-02-1981,2.578125,0.0,187200,2.648437976837158,2.59375,0.8948540091514587
03-02-1981,2.578125,0.0,313600,2.640625,2.625,0.9056353569030762
04-02-1981,2.570312976837158,0.0,601600,2.65625,2.578125,0.8894628882408142
05-02-1981,2.570312976837158,0.0,201600,2.625,2.625,0.9056353569030762
06-02-1981,2.625,0.0,532800,2.71875,2.710937976837158,0.9352839589118958
09-02-1981,2.664062976837158,0.0,464000,2.71875,2.703125,0.9325888156890869
10-02-1981,2.6875,0.0,472000,2.71875,2.703125,0.9325888156890869
11-02-1981,2.65625,0.0,617600,2.703125,2.6875,0.9271981120109558
12-02-1981,2.625,0.0,196800,2.679687976837158,2.679687976837158,0.9245028495788574
13-02-1981,2.609375,0.0,156800,2.671875,2.640625,0.9110251069068909
17-02-1981,2.601562976837158,0.0,345600,2.65625,2.609375,0.9002441167831421
18-02-1981,2.5625,0.0,428800,2.640625,2.59375,0.8948540091514587
19-02-1981,2.53125,0.0,601600,2.59375,2.546875,0.8786815404891968
20-02-1981,2.539062976837158,0.0,329600,2.554687976837158,2.546875,0.8786815404891968
23-02-1981,2.546875,0.0,427200,2.585937976837158,2.585937976837158,0.8921583890914917
24-02-1981,2.59375,0.0,334400,2.632812976837158,2.625,0.9056353569030762
25-02-1981,2.609375,0.0,4424000,2.9375,2.9375,1.0134494304656982
26-02-1981,2.875,0.0,5041600,3.09375,3.046875,1.051183819770813
27-02-1981,2.992187976837158,0.0,3398400,3.15625,3.15625,1.0889184474945068
02-03-1981,3.140625,0.0,3272000,3.234375,3.210937976837158,1.107785701751709
03-03-1981,3.09375,0.0,3803200,3.234375,3.148437976837158,1.0862243175506592
04-03-1981,3.0625,0.0,1982400,3.125,3.125,1.0781365633010864
05-03-1981,2.984375,0.0,1225600,3.117187976837158,3.0,1.0350112915039062
06-03-1981,2.890625,0.0,1899200,3.039062976837158,3.03125,1.045793056488037
09-03-1981,2.96875,0.0,712000,3.0625,3.0625,1.0565745830535889
10-03-1981,2.9375,0.0,497600,3.046875,2.960937976837158,1.0215345621109009
11-03-1981,2.914062976837158,0.0,1625600,2.984375,2.96875,1.0242301225662231
12-03-1981,2.9375,0.0,1329600,3.09375,3.078125,1.061964988708496
13-03-1981,3.09375,0.0,1672000,3.140625,3.125,1.0781365633010864
16-03-1981,3.0625,0.0,566400,3.140625,3.109375,1.0727466344833374
17-03-1981,3.117187976837158,0.0,2062400,3.1875,3.164062976837158,1.09161376953125
18-03-1981,3.125,0.0,1782400,3.296875,3.21875,1.110480785369873
19-03-1981,3.171875,0.0,648000,3.265625,3.171875,1.0943087339401245
20-03-1981,3.15625,0.0,884800,3.25,3.195312976837158,1.1023952960968018
23-03-1981,3.171875,0.0,368000,3.234375,3.21875,1.110480785369873
24-03-1981,3.125,0.0,760000,3.25,3.179687976837158,1.0970042943954468
25-03-1981,3.171875,0.0,6833600,3.492187976837158,3.453125,1.191341757774353
26-03-1981,3.34375,0.0,2190400,3.46875,3.34375,1.1536072492599487
27-03-1981,3.328125,0.0,1571200,3.460937976837158,3.390625,1.16977858543396
30-03-1981,3.28125,0.0,1011200,3.398437976837158,3.28125,1.1320438385009766
31-03-1981,3.328125,0.0,1208000,3.398437976837158,3.382812976837158,1.1670832633972168
01-04-1981,3.335937976837158,0.0,1326400,3.4375,3.40625,1.175169825553894
02-04-1981,3.28125,0.0,723200,3.421875,3.359375,1.1589975357055664
03-04-1981,3.28125,0.0,817600,3.367187976837158,3.296875,1.1374353170394897
06-04-1981,3.3125,0.0,2217600,3.609375,3.609375,1.245248556137085
07-04-1981,3.515625,0.0,2635200,3.640625,3.546875,1.22368586063385
08-04-1981,3.46875,0.0,968000,3.585937976837158,3.484375,1.2021232843399048
09-04-1981,3.46875,0.0,2723200,3.5625,3.515625,1.2129039764404297
10-04-1981,3.46875,0.0,1227200,3.5625,3.5625,1.229076623916626
13-04-1981,3.5625,0.0,1553600,3.609375,3.578125,1.234466314315796
14-04-1981,3.484375,0.0,555200,3.5625,3.5,1.207513689994812
15-04-1981,3.4375,0.0,665600,3.507812976837158,3.492187976837158,1.2048184871673584
16-04-1981,3.476562976837158,0.0,716800,3.523437976837158,3.523437976837158,1.2155998945236206
20-04-1981,3.492187976837158,0.0,400000,3.53125,3.515625,1.2129039764404297
21-04-1981,3.296875,0.0,1460800,3.523437976837158,3.296875,1.1374353170394897
22-04-1981,3.28125,0.0,824000,3.367187976837158,3.320312976837158,1.1455204486846924
23-04-1981,3.3125,0.0,907200,3.421875,3.382812976837158,1.1670832633972168
24-04-1981,3.34375,0.0,995200,3.421875,3.40625,1.175169825553894
27-04-1981,3.375,0.0,1088000,3.453125,3.40625,1.175169825553894
28-04-1981,3.234375,0.0,592000,3.390625,3.289062976837158,1.1347391605377197
29-04-1981,3.15625,0.0,633600,3.25,3.179687976837158,1.0970042943954468
30-04-1981,3.164062976837158,0.0,756800,3.210937976837158,3.1875,1.0997000932693481
01-05-1981,3.171875,0.0,1225600,3.296875,3.25,1.1212623119354248
04-05-1981,3.171875,0.0,536000,3.25,3.195312976837158,1.1023952960968018
05-05-1981,3.09375,0.0,937600,3.140625,3.101562976837158,1.0700509548187256
06-05-1981,3.109375,0.0,716800,3.15625,3.117187976837158,1.075441837310791
07-05-1981,3.109375,0.0,876800,3.203125,3.1875,1.0997000932693481
08-05-1981,3.164062976837158,0.0,827200,3.203125,3.1875,1.0997000932693481
11-05-1981,3.101562976837158,0.0,372800,3.210937976837158,3.101562976837158,1.0700509548187256
12-05-1981,3.0625,0.0,782400,3.109375,3.078125,1.061964988708496
13-05-1981,3.046875,0.0,374400,3.125,3.09375,1.0673558712005615
14-05-1981,3.078125,0.0,1054400,3.203125,3.125,1.0781365633010864
15-05-1981,3.109375,0.0,748800,3.15625,3.140625,1.0835278034210205
18-05-1981,3.117187976837158,0.0,348800,3.148437976837158,3.132812976837158,1.080832839012146
19-05-1981,3.125,0.0,654400,3.203125,3.1875,1.0997000932693481
20-05-1981,3.203125,0.0,1464000,3.40625,3.398437976837158,1.1724735498428345
21-05-1981,3.320312976837158,0.0,801600,3.398437976837158,3.375,1.1643877029418945
22-05-1981,3.296875,0.0,388800,3.367187976837158,3.328125,1.1482162475585938
26-05-1981,3.289062976837158,0.0,444800,3.328125,3.328125,1.1482162475585938
27-05-1981,3.265625,0.0,400000,3.359375,3.273437976837158,1.1293487548828125
28-05-1981,3.234375,0.0,273600,3.296875,3.234375,1.115871548652649
29-05-1981,3.171875,0.0,212800,3.21875,3.203125,1.1050901412963867
01-06-1981,3.140625,0.0,1132800,3.242187976837158,3.140625,1.0835278034210205
02-06-1981,3.0,0.0,675200,3.125,3.0625,1.0565745830535889
03-06-1981,2.9375,0.0,411200,3.046875,2.960937976837158,1.0215345621109009
04-06-1981,2.945312976837158,0.0,344000,2.976562976837158,2.96875,1.0242301225662231
05-06-1981,2.921875,0.0,1054400,3.039062976837158,3.03125,1.045793056488037
08-06-1981,3.015625,0.0,347200,3.078125,3.03125,1.045793056488037
09-06-1981,3.0,0.0,750400,3.078125,3.046875,1.051183819770813
10-06-1981,3.0,0.0,369600,3.085937976837158,3.0625,1.0565745830535889
11-06-1981,3.078125,0.0,139200,3.15625,3.15625,1.0889184474945068
12-06-1981,3.085937976837158,0.0,171200,3.140625,3.09375,1.0673558712005615
15-06-1981,3.078125,0.0,233600,3.140625,3.140625,1.0835278034210205
16-06-1981,3.101562976837158,0.0,150400,3.132812976837158,3.109375,1.0727466344833374
17-06-1981,3.054687976837158,0.0,256000,3.09375,3.078125,1.061964988708496
18-06-1981,3.007812976837158,0.0,185600,3.078125,3.015625,1.0404025316238403
19-06-1981,2.9375,0.0,196800,3.0,2.953125,1.0188393592834473
22-06-1981,2.9375,0.0,363200,2.984375,2.960937976837158,1.0215345621109009
23-06-1981,2.945312976837158,0.0,195200,2.992187976837158,2.96875,1.0242301225662231
24-06-1981,2.90625,0.0,224000,2.976562976837158,2.9375,1.0134494304656982
25-06-1981,2.921875,0.0,192000,2.960937976837158,2.9375,1.0134494304656982
26-06-1981,2.828125,0.0,332800,2.929687976837158,2.875,0.9918861985206604
29-06-1981,2.875,0.0,454400,2.921875,2.914062976837158,1.005362629890442
30-06-1981,2.914062976837158,0.0,284800,2.960937976837158,2.9375,1.0134494304656982
01-07-1981,2.921875,0.0,190400,2.953125,2.945312976837158,1.0161439180374146
02-07-1981,2.921875,0.0,67200,2.953125,2.9375,1.0134494304656982
06-07-1981,2.890625,0.0,198400,2.929687976837158,2.90625,1.0026670694351196
07-07-1981,2.796875,0.0,302400,2.898437976837158,2.804687976837158,0.967627763748169
08-07-1981,2.742187976837158,0.0,870400,2.8125,2.765625,0.9541512131690979
09-07-1981,2.71875,0.0,662400,2.75,2.75,0.9487602114677429
10-07-1981,2.710937976837158,0.0,360000,2.757812976837158,2.71875,0.9379792809486389
13-07-1981,2.6875,0.0,428800,2.726562976837158,2.695312976837158,0.9298936128616333
14-07-1981,2.6875,0.0,577600,2.710937976837158,2.703125,0.9325888156890869
15-07-1981,2.695312976837158,0.0,2560000,2.875,2.796875,0.9649326205253601
16-07-1981,2.796875,0.0,1044800,2.835937976837158,2.835937976837158,0.9784100651741028
17-07-1981,2.828125,0.0,542400,2.898437976837158,2.84375,0.9811046719551086
20-07-1981,2.75,0.0,889600,2.84375,2.765625,0.9541512131690979
21-07-1981,2.742187976837158,0.0,651200,2.8125,2.742187976837158,0.9460651874542236
22-07-1981,2.703125,0.0,379200,2.765625,2.703125,0.9325888156890869
23-07-1981,2.671875,0.0,664000,2.757812976837158,2.726562976837158,0.9406747221946716
24-07-1981,2.71875,0.0,174400,2.765625,2.75,0.9487602114677429
27-07-1981,2.71875,0.0,350400,2.78125,2.71875,0.9379792809486389
28-07-1981,2.703125,0.0,1201600,2.78125,2.78125,0.9595419764518738
29-07-1981,2.78125,0.0,1441600,2.835937976837158,2.796875,0.9649326205253601
30-07-1981,2.773437976837158,0.0,329600,2.820312976837158,2.789062976837158,0.9622381329536438
31-07-1981,2.78125,0.0,241600,2.8125,2.78125,0.9595419764518738
03-08-1981,2.773437976837158,0.0,460800,2.8125,2.796875,0.9649326205253601
04-08-1981,2.757812976837158,0.0,310400,2.8125,2.796875,0.9649326205253601
05-08-1981,2.796875,0.0,454400,2.890625,2.890625,0.997277021408081
06-08-1981,2.859375,0.0,1337600,2.945312976837158,2.875,0.9918861985206604
07-08-1981,2.835937976837158,0.0,129600,2.890625,2.851562976837158,0.9838002920150757
10-08-1981,2.835937976837158,0.0,798400,2.875,2.875,0.9918861985206604
11-08-1981,2.890625,0.0,822400,2.96875,2.953125,1.0188393592834473
12-08-1981,2.875,0.0,324800,2.984375,2.882812976837158,0.9945817589759827
13-08-1981,2.835937976837158,0.0,112000,2.875,2.859375,0.9864949584007263
14-08-1981,2.851562976837158,0.0,268800,2.929687976837158,2.90625,1.0026670694351196
17-08-1981,2.851562976837158,0.0,265600,2.921875,2.882812976837158,0.9945817589759827
18-08-1981,2.8125,0.0,1198400,2.882812976837158,2.835937976837158,0.9784100651741028
19-08-1981,2.828125,0.0,326400,2.859375,2.859375,0.9864949584007263
20-08-1981,2.851562976837158,0.0,166400,2.867187976837158,2.851562976837158,0.9838002920150757
21-08-1981,2.828125,0.0,675200,2.859375,2.835937976837158,0.9784100651741028
24-08-1981,2.828125,0.0,747200,2.851562976837158,2.851562976837158,0.9838002920150757
25-08-1981,2.835937976837158,0.0,464000,2.898437976837158,2.882812976837158,0.9945817589759827
26-08-1981,2.867187976837158,0.0,120000,2.890625,2.867187976837158,0.9891904592514038
27-08-1981,2.867187976837158,0.0,112000,2.875,2.867187976837158,0.9891904592514038
28-08-1981,2.867187976837158,0.0,248000,2.875,2.867187976837158,0.9891904592514038
31-08-1981,2.859375,0.0,196800,2.867187976837158,2.859375,0.9864949584007263
01-09-1981,2.867187976837158,0.0,342400,2.875,2.867187976837158,0.9891904592514038
02-09-1981,2.875,0.0,153600,2.898437976837158,2.882812976837158,0.9945817589759827
03-09-1981,2.859375,0.0,315200,2.890625,2.859375,0.9864949584007263
04-09-1981,2.796875,0.0,465600,2.84375,2.8125,0.9703234434127808
08-09-1981,2.65625,0.0,449600,2.789062976837158,2.695312976837158,0.9298936128616333
09-09-1981,2.664062976837158,0.0,278400,2.703125,2.6875,0.9271981120109558
10-09-1981,2.6875,0.0,217600,2.757812976837158,2.726562976837158,0.9406747221946716
11-09-1981,2.6875,0.0,230400,2.726562976837158,2.703125,0.9325888156890869
14-09-1981,2.695312976837158,0.0,393600,2.71875,2.710937976837158,0.9352839589118958
15-09-1981,2.703125,0.0,355200,2.75,2.703125,0.9325888156890869
16-09-1981,2.703125,0.0,403200,2.734375,2.734375,0.9433702826499939
17-09-1981,2.710937976837158,0.0,89600,2.734375,2.710937976837158,0.9352839589118958
18-09-1981,2.632812976837158,0.0,1006400,2.703125,2.640625,0.9110251069068909
21-09-1981,2.640625,0.0,283200,2.648437976837158,2.648437976837158,0.913720965385437
22-09-1981,2.632812976837158,0.0,240000,2.648437976837158,2.648437976837158,0.913720965385437
23-09-1981,2.59375,0.0,523200,2.625,2.609375,0.9002441167831421
24-09-1981,2.578125,0.0,484800,2.640625,2.59375,0.8948540091514587
25-09-1981,2.460937976837158,0.0,366400,2.59375,2.46875,0.8517280220985413
28-09-1981,2.390625,0.0,694400,2.546875,2.546875,0.8786815404891968
29-09-1981,2.5625,0.0,737600,2.625,2.5625,0.8840727210044861
30-09-1981,2.5,0.0,313600,2.554687976837158,2.515625,0.8679003715515137
01-10-1981,2.453125,0.0,964800,2.523437976837158,2.492187976837158,0.8598144054412842
02-10-1981,2.476562976837158,0.0,2206400,2.523437976837158,2.523437976837158,0.8705962896347046
05-10-1981,2.476562976837158,0.0,516800,2.53125,2.492187976837158,0.8598144054412842
06-10-1981,2.421875,0.0,513600,2.492187976837158,2.4375,0.8409473299980164
07-10-1981,2.40625,0.0,182400,2.4375,2.421875,0.8355563282966614
08-10-1981,2.40625,0.0,644800,2.460937976837158,2.453125,0.8463377356529236
09-10-1981,2.421875,0.0,329600,2.453125,2.4375,0.8409473299980164
12-10-1981,2.414062976837158,0.0,387200,2.4375,2.4375,0.8409473299980164
13-10-1981,2.421875,0.0,110400,2.445312976837158,2.429687976837158,0.8382520079612732
14-10-1981,2.421875,0.0,70400,2.4375,2.421875,0.8355563282966614
15-10-1981,2.421875,0.0,132800,2.4375,2.429687976837158,0.8382520079612732
16-10-1981,2.429687976837158,0.0,1144000,2.453125,2.429687976837158,0.8382520079612732
19-10-1981,2.414062976837158,0.0,216000,2.445312976837158,2.445312976837158,0.8436421751976013
20-10-1981,2.390625,0.0,1475200,2.421875,2.390625,0.8247746825218201
21-10-1981,2.375,0.0,419200,2.414062976837158,2.390625,0.8247746825218201
22-10-1981,2.3125,0.0,283200,2.382812976837158,2.34375,0.8086028695106506
23-10-1981,2.289062976837158,0.0,372800,2.359375,2.296875,0.7924304604530334
26-10-1981,2.289062976837158,0.0,108800,2.328125,2.304687976837158,0.7951258420944214
27-10-1981,2.304687976837158,0.0,153600,2.367187976837158,2.351562976837158,0.8112982511520386
28-10-1981,2.351562976837158,0.0,648000,2.421875,2.382812976837158,0.8220798969268799
29-10-1981,2.351562976837158,0.0,318400,2.382812976837158,2.359375,0.8139935731887817
30-10-1981,2.351562976837158,0.0,491200,2.390625,2.390625,0.8247746825218201
02-11-1981,2.414062976837158,0.0,1241600,2.46875,2.4375,0.8409473299980164
03-11-1981,2.445312976837158,0.0,411200,2.53125,2.53125,0.873291015625
04-11-1981,2.5,0.0,1062400,2.53125,2.507812976837158,0.8652054667472839
05-11-1981,2.507812976837158,0.0,451200,2.5625,2.546875,0.8786815404891968
06-11-1981,2.515625,0.0,161600,2.570312976837158,2.5625,0.8840727210044861
09-11-1981,2.539062976837158,0.0,91200,2.570312976837158,2.570312976837158,0.8867684602737427
10-11-1981,2.59375,0.0,137600,2.617187976837158,2.59375,0.8948540091514587
11-11-1981,2.59375,0.0,331200,2.617187976837158,2.617187976837158,0.9029396176338196
12-11-1981,2.59375,0.0,236800,2.640625,2.609375,0.9002441167831421
13-11-1981,2.53125,0.0,358400,2.59375,2.554687976837158,0.8813773989677429
16-11-1981,2.453125,0.0,284800,2.53125,2.476562976837158,0.854423999786377
17-11-1981,2.46875,0.0,500800,2.5,2.492187976837158,0.8598144054412842
18-11-1981,2.46875,0.0,926400,2.5,2.46875,0.8517280220985413
19-11-1981,2.460937976837158,0.0,518400,2.484375,2.476562976837158,0.854423999786377
20-11-1981,2.476562976837158,0.0,86400,2.5,2.5,0.8625096082687378
23-11-1981,2.445312976837158,0.0,190400,2.492187976837158,2.460937976837158,0.8490330576896667
24-11-1981,2.445312976837158,0.0,150400,2.46875,2.460937976837158,0.8490330576896667
25-11-1981,2.445312976837158,0.0,1275200,2.484375,2.453125,0.8463377356529236
27-11-1981,2.453125,0.0,196800,2.476562976837158,2.476562976837158,0.854423999786377
30-11-1981,2.460937976837158,0.0,275200,2.53125,2.515625,0.8679003715515137
01-12-1981,2.453125,0.0,657600,2.523437976837158,2.484375,0.8571181297302246
02-12-1981,2.445312976837158,0.0,364800,2.507812976837158,2.484375,0.8571181297302246
03-12-1981,2.476562976837158,0.0,422400,2.515625,2.515625,0.8679003715515137
04-12-1981,2.5,0.0,1816000,2.53125,2.515625,0.8679003715515137
07-12-1981,2.46875,0.0,400000,2.53125,2.492187976837158,0.8598144054412842
08-12-1981,2.460937976837158,0.0,201600,2.492187976837158,2.46875,0.8517280220985413
09-12-1981,2.460937976837158,0.0,347200,2.492187976837158,2.484375,0.8571181297302246
10-12-1981,2.460937976837158,0.0,403200,2.5,2.492187976837158,0.8598144054412842
11-12-1981,2.484375,0.0,281600,2.515625,2.515625,0.8679003715515137
14-12-1981,2.4375,0.0,860800,2.492187976837158,2.453125,0.8463377356529236
15-12-1981,2.390625,0.0,264000,2.453125,2.445312976837158,0.8436421751976013
16-12-1981,2.4375,0.0,113600,2.453125,2.445312976837158,0.8436421751976013
17-12-1981,2.4375,0.0,363200,2.453125,2.4375,0.8409473299980164
18-12-1981,2.421875,0.0,209600,2.445312976837158,2.421875,0.8355563282966614
21-12-1981,2.375,0.0,670400,2.4375,2.375,0.8193843960762024
22-12-1981,2.359375,0.0,240000,2.390625,2.375,0.8193843960762024
23-12-1981,2.351562976837158,0.0,388800,2.382812976837158,2.375,0.8193843960762024
24-12-1981,2.367187976837158,0.0,520000,2.382812976837158,2.382812976837158,0.8220798969268799
28-12-1981,2.3125,0.0,1014400,2.375,2.3125,0.7978214621543884
29-12-1981,2.3125,0.0,248000,2.328125,2.3125,0.7978214621543884
30-12-1981,2.3125,0.0,195200,2.335937976837158,2.328125,0.8032121658325195
31-12-1981,2.21875,0.0,580800,2.375,2.359375,0.8139935731887817
04-01-1982,2.335937976837158,0.0,728000,2.367187976837158,2.367187976837158,0.8166886568069458
05-01-1982,2.296875,0.0,278400,2.359375,2.328125,0.8032121658325195
06-01-1982,2.289062976837158,0.0,336000,2.328125,2.328125,0.8032121658325195
07-01-1982,2.28125,0.0,408000,2.335937976837158,2.296875,0.7924304604530334
08-01-1982,2.257812976837158,0.0,228800,2.3125,2.265625,0.7816491723060608
11-01-1982,2.1875,0.0,5382400,2.265625,2.1875,0.7546959519386292
12-01-1982,2.15625,0.0,358400,2.210937976837158,2.203125,0.7600865960121155
13-01-1982,2.171875,0.0,507200,2.21875,2.1875,0.7546959519386292
14-01-1982,2.15625,0.0,177600,2.179687976837158,2.179687976837158,0.7520009875297546
15-01-1982,2.140625,0.0,291200,2.1875,2.15625,0.7439144849777222
18-01-1982,2.0,0.0,10244800,2.132812976837158,2.0625,0.7115703821182251
19-01-1982,2.039062976837158,0.0,312000,2.085937976837158,2.054687976837158,0.7088751196861267
20-01-1982,2.023437976837158,0.0,492800,2.0625,2.046875,0.706179678440094
21-01-1982,2.023437976837158,0.0,321600,2.046875,2.046875,0.706179678440094
22-01-1982,2.0,0.0,1499200,2.03125,2.03125,0.7007895112037659
25-01-1982,2.0,0.0,403200,2.03125,2.015625,0.6953983902931213
26-01-1982,1.96875,0.0,1643200,2.015625,2.0,0.690007746219635
27-01-1982,1.9921879768371582,0.0,345600,2.007812976837158,2.007812976837158,0.6927033066749573
28-01-1982,1.9921879768371582,0.0,492800,2.039062976837158,2.039062976837158,0.7034847736358643
29-01-1982,2.0625,0.0,1184000,2.09375,2.085937976837158,0.7196566462516785
01-02-1982,2.03125,0.0,243200,2.078125,2.046875,0.706179678440094
02-02-1982,2.007812976837158,0.0,283200,2.0625,2.0625,0.7115703821182251
03-02-1982,2.039062976837158,0.0,523200,2.070312976837158,2.070312976837158,0.7142661809921265
04-02-1982,2.046875,0.0,222400,2.078125,2.078125,0.7169609665870667
05-02-1982,2.070312976837158,0.0,353600,2.148437976837158,2.148437976837158,0.7412194013595581
08-02-1982,2.078125,0.0,721600,2.125,2.078125,0.7169609665870667
09-02-1982,2.015625,0.0,203200,2.046875,2.039062976837158,0.7034847736358643
10-02-1982,2.015625,0.0,596800,2.039062976837158,2.039062976837158,0.7034847736358643
11-02-1982,1.9296879768371582,0.0,480000,2.039062976837158,1.953125,0.6738356947898865
12-02-1982,1.9375,0.0,304000,1.9765629768371582,1.9765629768371582,0.6819214820861816
16-02-1982,1.9375,0.0,512000,1.984375,1.984375,0.6846171617507935
17-02-1982,1.9609379768371582,0.0,233600,2.0,1.9765629768371582,0.6819214820861816
18-02-1982,1.9375,0.0,363200,1.9765629768371582,1.9765629768371582,0.6819214820861816
19-02-1982,1.9453129768371582,0.0,192000,1.984375,1.96875,0.679226279258728
22-02-1982,1.9375,0.0,1331200,2.023437976837158,1.9453129768371582,0.6711403131484985
23-02-1982,1.9453129768371582,0.0,182400,1.96875,1.9609379768371582,0.6765309572219849
24-02-1982,1.921875,0.0,2142400,1.9609379768371582,1.953125,0.6738356947898865
25-02-1982,1.953125,0.0,889600,1.9765629768371582,1.953125,0.6738356947898865
26-02-1982,1.9453129768371582,0.0,939200,1.96875,1.9609379768371582,0.6765309572219849
01-03-1982,1.9375,0.0,419200,1.96875,1.9375,0.6684449911117554
02-03-1982,1.921875,0.0,336000,1.953125,1.9296879768371582,0.6657503247261047
03-03-1982,1.890625,0.0,409600,1.9296879768371582,1.90625,0.6576634049415588
04-03-1982,1.8828129768371582,0.0,235200,1.921875,1.890625,0.6522728800773621
05-03-1982,1.875,0.0,265600,1.90625,1.875,0.6468820571899414
08-03-1982,1.84375,0.0,560000,1.8828129768371582,1.84375,0.6361010670661926
09-03-1982,1.8125,0.0,1928000,1.8515629768371582,1.828125,0.6307101249694824
10-03-1982,1.8203129768371582,0.0,656000,1.859375,1.859375,0.641491711139679
11-03-1982,1.84375,0.0,712000,1.9375,1.9375,0.6684449911117554
12-03-1982,1.90625,0.0,336000,1.9609379768371582,1.9609379768371582,0.6765309572219849
15-03-1982,1.9453129768371582,0.0,176000,2.0,1.9921879768371582,0.6873128414154053
16-03-1982,1.9765629768371582,0.0,998400,2.007812976837158,2.007812976837158,0.6927033066749573
17-03-1982,1.96875,0.0,952000,2.023437976837158,2.0,0.690007746219635
18-03-1982,1.9375,0.0,616000,2.0,1.96875,0.679226279258728
19-03-1982,1.9375,0.0,812800,1.96875,1.96875,0.679226279258728
22-03-1982,1.9375,0.0,342400,1.96875,1.9609379768371582,0.6765309572219849
23-03-1982,1.9609379768371582,0.0,1097600,2.015625,1.9921879768371582,0.6873128414154053
24-03-1982,2.0,0.0,291200,2.03125,2.015625,0.6953983902931213
25-03-1982,1.96875,0.0,1993600,2.0,1.9921879768371582,0.6873128414154053
26-03-1982,1.953125,0.0,265600,1.9921879768371582,1.9609379768371582,0.6765309572219849
29-03-1982,1.9609379768371582,0.0,44800,1.984375,1.984375,0.6846171617507935
30-03-1982,1.9765629768371582,0.0,248000,2.007812976837158,1.9921879768371582,0.6873128414154053
31-03-1982,1.96875,0.0,72000,1.984375,1.9765629768371582,0.6819214820861816
01-04-1982,1.96875,0.0,228800,2.0,2.0,0.690007746219635
02-04-1982,1.9765629768371582,0.0,385600,2.015625,2.007812976837158,0.6927033066749573
05-04-1982,2.0,0.0,372800,2.03125,2.007812976837158,0.6927033066749573
06-04-1982,2.007812976837158,0.0,211200,2.023437976837158,2.015625,0.6953983902931213
07-04-1982,2.007812976837158,0.0,254400,2.03125,2.03125,0.7007895112037659
08-04-1982,2.015625,0.0,155200,2.046875,2.023437976837158,0.6980938911437988
12-04-1982,2.007812976837158,0.0,131200,2.039062976837158,2.023437976837158,0.6980938911437988
13-04-1982,2.023437976837158,0.0,312000,2.046875,2.039062976837158,0.7034847736358643
14-04-1982,2.023437976837158,0.0,408000,2.054687976837158,2.054687976837158,0.7088751196861267
15-04-1982,2.0,0.0,2214400,2.054687976837158,2.007812976837158,0.6927033066749573
16-04-1982,1.984375,0.0,672000,2.015625,2.0,0.690007746219635
19-04-1982,1.9921879768371582,0.0,412800,2.015625,2.015625,0.6953983902931213
20-04-1982,2.0,0.0,228800,2.015625,2.015625,0.6953983902931213
21-04-1982,2.0,0.0,352000,2.03125,2.015625,0.6953983902931213
22-04-1982,2.0,0.0,467200,2.03125,2.015625,0.6953983902931213
23-04-1982,2.007812976837158,0.0,787200,2.054687976837158,2.054687976837158,0.7088751196861267
26-04-1982,2.070312976837158,0.0,516800,2.117187976837158,2.117187976837158,0.730438232421875
27-04-1982,2.109375,0.0,404800,2.15625,2.117187976837158,0.730438232421875
28-04-1982,2.117187976837158,0.0,116800,2.148437976837158,2.125,0.7331331968307495
29-04-1982,2.078125,0.0,249600,2.125,2.085937976837158,0.7196566462516785
30-04-1982,2.046875,0.0,862400,2.132812976837158,2.132812976837158,0.7358287572860718
03-05-1982,2.09375,0.0,3374400,2.164062976837158,2.15625,0.7439144849777222
04-05-1982,2.101562976837158,0.0,3448000,2.15625,2.117187976837158,0.730438232421875
05-05-1982,2.09375,0.0,745600,2.140625,2.117187976837158,0.730438232421875
06-05-1982,2.101562976837158,0.0,491200,2.140625,2.109375,0.7277426719665527
07-05-1982,2.09375,0.0,235200,2.125,2.109375,0.7277426719665527
10-05-1982,2.09375,0.0,78400,2.125,2.101562976837158,0.7250472903251648
11-05-1982,2.101562976837158,0.0,164800,2.140625,2.132812976837158,0.7358287572860718
12-05-1982,2.117187976837158,0.0,316800,2.171875,2.140625,0.738524317741394
13-05-1982,2.0625,0.0,2137600,2.148437976837158,2.078125,0.7169609665870667
14-05-1982,2.0625,0.0,3348800,2.109375,2.109375,0.7277426719665527
17-05-1982,2.09375,0.0,280000,2.125,2.109375,0.7277426719665527
18-05-1982,2.101562976837158,0.0,369600,2.125,2.109375,0.7277426719665527
19-05-1982,2.109375,0.0,539200,2.15625,2.125,0.7331331968307495
20-05-1982,2.101562976837158,0.0,315200,2.140625,2.140625,0.738524317741394
21-05-1982,2.09375,0.0,737600,2.140625,2.125,0.7331331968307495
24-05-1982,2.09375,0.0,81600,2.125,2.101562976837158,0.7250472903251648
25-05-1982,2.070312976837158,0.0,195200,2.109375,2.085937976837158,0.7196566462516785
26-05-1982,2.070312976837158,0.0,376000,2.09375,2.070312976837158,0.7142661809921265
27-05-1982,2.015625,0.0,241600,2.070312976837158,2.070312976837158,0.7142661809921265
28-05-1982,2.054687976837158,0.0,100800,2.085937976837158,2.078125,0.7169609665870667
01-06-1982,1.96875,0.0,196800,2.085937976837158,1.984375,0.6846171617507935
02-06-1982,1.984375,0.0,427200,2.03125,2.03125,0.7007895112037659
03-06-1982,2.0,0.0,928000,2.078125,2.015625,0.6953983902931213
04-06-1982,1.921875,0.0,1617600,2.0,1.9375,0.6684449911117554
07-06-1982,1.9140629768371582,0.0,307200,1.953125,1.921875,0.6630542278289795
08-06-1982,1.890625,0.0,337600,1.921875,1.8984379768371582,0.6549684405326843
09-06-1982,1.828125,0.0,2569600,1.890625,1.8359379768371582,0.6334062218666077
10-06-1982,1.8203129768371582,0.0,107200,1.875,1.8671879768371582,0.6441871523857117
11-06-1982,1.8984379768371582,0.0,646400,1.9140629768371582,1.9140629768371582,0.6603588461875916
14-06-1982,1.890625,0.0,726400,1.921875,1.921875,0.6630542278289795
15-06-1982,1.890625,0.0,846400,1.921875,1.921875,0.6630542278289795
16-06-1982,1.921875,0.0,409600,1.9453129768371582,1.9375,0.6684449911117554
17-06-1982,1.90625,0.0,161600,1.9296879768371582,1.9296879768371582,0.6657503247261047
18-06-1982,1.90625,0.0,121600,1.9453129768371582,1.921875,0.6630542278289795
21-06-1982,1.8828129768371582,0.0,140800,1.921875,1.8984379768371582,0.6549684405326843
22-06-1982,1.8828129768371582,0.0,100800,1.90625,1.90625,0.6576634049415588
23-06-1982,1.9140629768371582,0.0,182400,1.9609379768371582,1.953125,0.6738356947898865
24-06-1982,1.953125,0.0,635200,1.9921879768371582,1.9609379768371582,0.6765309572219849
25-06-1982,1.9453129768371582,0.0,168000,1.984375,1.9765629768371582,0.6819214820861816
28-06-1982,1.984375,0.0,752000,2.023437976837158,2.0,0.690007746219635
29-06-1982,2.0,0.0,566400,2.09375,2.09375,0.722352147102356
30-06-1982,2.03125,0.0,728000,2.085937976837158,2.078125,0.7169609665870667
01-07-1982,2.0625,0.0,1262400,2.085937976837158,2.085937976837158,0.7196566462516785
02-07-1982,2.070312976837158,0.0,228800,2.078125,2.078125,0.7169609665870667
06-07-1982,2.046875,0.0,910400,2.085937976837158,2.046875,0.706179678440094
07-07-1982,2.0,0.0,244800,2.0625,2.0,0.690007746219635
08-07-1982,2.0,0.0,256000,2.046875,2.039062976837158,0.7034847736358643
09-07-1982,2.039062976837158,0.0,971200,2.0625,2.0625,0.7115703821182251
12-07-1982,2.046875,0.0,321600,2.09375,2.0625,0.7115703821182251
13-07-1982,2.046875,0.0,1595200,2.070312976837158,2.046875,0.706179678440094
14-07-1982,2.0,0.0,80000,2.03125,2.015625,0.6953983902931213
15-07-1982,2.0,0.0,219200,2.046875,2.03125,0.7007895112037659
16-07-1982,2.0,0.0,1366400,2.03125,2.023437976837158,0.6980938911437988
19-07-1982,2.03125,0.0,1960000,2.0625,2.046875,0.706179678440094
20-07-1982,2.046875,0.0,907200,2.09375,2.085937976837158,0.7196566462516785
21-07-1982,2.09375,0.0,1259200,2.179687976837158,2.171875,0.7493054270744324
22-07-1982,2.164062976837158,0.0,206400,2.21875,2.203125,0.7600865960121155
23-07-1982,2.171875,0.0,185600,2.226562976837158,2.1875,0.7546959519386292
26-07-1982,2.1875,0.0,324800,2.242187976837158,2.242187976837158,0.7735633254051208
27-07-1982,2.210937976837158,0.0,184000,2.226562976837158,2.226562976837158,0.7681725025177002
28-07-1982,2.132812976837158,0.0,358400,2.21875,2.140625,0.738524317741394
29-07-1982,2.109375,0.0,401600,2.203125,2.203125,0.7600865960121155
30-07-1982,2.195312976837158,0.0,336000,2.226562976837158,2.226562976837158,0.7681725025177002
02-08-1982,2.21875,0.0,564800,2.28125,2.273437976837158,0.7843447923660278
03-08-1982,2.234375,0.0,1036800,2.28125,2.25,0.7762588858604431
04-08-1982,2.140625,0.0,4504000,2.203125,2.148437976837158,0.7412194013595581
05-08-1982,2.09375,0.0,241600,2.140625,2.117187976837158,0.730438232421875
06-08-1982,2.03125,0.0,753600,2.117187976837158,2.03125,0.7007895112037659
09-08-1982,2.007812976837158,0.0,225600,2.054687976837158,2.054687976837158,0.7088751196861267
10-08-1982,2.046875,0.0,363200,2.078125,2.078125,0.7169609665870667
11-08-1982,2.070312976837158,0.0,219200,2.085937976837158,2.078125,0.7169609665870667
12-08-1982,2.070312976837158,0.0,756800,2.101562976837158,2.085937976837158,0.7196566462516785
13-08-1982,2.085937976837158,0.0,801600,2.117187976837158,2.109375,0.7277426719665527
16-08-1982,2.101562976837158,0.0,670400,2.132812976837158,2.117187976837158,0.730438232421875
17-08-1982,2.125,0.0,614400,2.179687976837158,2.179687976837158,0.7520009875297546
18-08-1982,2.25,0.0,2147200,2.34375,2.296875,0.7924304604530334
19-08-1982,2.28125,0.0,1566400,2.3125,2.3125,0.7978214621543884
20-08-1982,2.328125,0.0,1852800,2.484375,2.4375,0.8409473299980164
23-08-1982,2.414062976837158,0.0,1672000,2.5,2.421875,0.8355563282966614
24-08-1982,2.375,0.0,1491200,2.4375,2.40625,0.8301657438278198
25-08-1982,2.375,0.0,1664000,2.507812976837158,2.4375,0.8409473299980164
26-08-1982,2.40625,0.0,1835200,2.53125,2.445312976837158,0.8436421751976013
27-08-1982,2.375,0.0,1766400,2.453125,2.40625,0.8301657438278198
30-08-1982,2.40625,0.0,1560000,2.515625,2.515625,0.8679003715515137
31-08-1982,2.53125,0.0,1078400,2.59375,2.53125,0.873291015625
01-09-1982,2.515625,0.0,611200,2.5625,2.515625,0.8679003715515137
02-09-1982,2.390625,0.0,681600,2.523437976837158,2.476562976837158,0.854423999786377
03-09-1982,2.492187976837158,0.0,932800,2.554687976837158,2.539062976837158,0.8759867548942566
07-09-1982,2.53125,0.0,1057600,2.5625,2.546875,0.8786815404891968
08-09-1982,2.53125,0.0,369600,2.554687976837158,2.53125,0.873291015625
09-09-1982,2.53125,0.0,905600,2.554687976837158,2.53125,0.873291015625
10-09-1982,2.445312976837158,0.0,1099200,2.53125,2.484375,0.8571181297302246
13-09-1982,2.40625,0.0,2040000,2.492187976837158,2.484375,0.8571181297302246
14-09-1982,2.476562976837158,0.0,827200,2.539062976837158,2.484375,0.8571181297302246
15-09-1982,2.453125,0.0,534400,2.515625,2.515625,0.8679003715515137
16-09-1982,2.460937976837158,0.0,1214400,2.53125,2.492187976837158,0.8598144054412842
17-09-1982,2.445312976837158,0.0,1208000,2.515625,2.46875,0.8517280220985413
20-09-1982,2.4375,0.0,584000,2.492187976837158,2.492187976837158,0.8598144054412842
21-09-1982,2.476562976837158,0.0,1401600,2.515625,2.515625,0.8679003715515137
22-09-1982,2.578125,0.0,2398400,2.617187976837158,2.585937976837158,0.8921583890914917
23-09-1982,2.539062976837158,0.0,457600,2.5625,2.5625,0.8840727210044861
24-09-1982,2.53125,0.0,444800,2.5625,2.5625,0.8840727210044861
27-09-1982,2.53125,0.0,627200,2.5625,2.546875,0.8786815404891968
28-09-1982,2.546875,0.0,1088000,2.59375,2.546875,0.8786815404891968
29-09-1982,2.5,0.0,868800,2.5625,2.5,0.8625096082687378
30-09-1982,2.421875,0.0,380800,2.484375,2.460937976837158,0.8490330576896667
01-10-1982,2.445312976837158,0.0,617600,2.5,2.5,0.8625096082687378
04-10-1982,2.476562976837158,0.0,1147200,2.515625,2.507812976837158,0.8652054667472839
05-10-1982,2.5,0.0,1032000,2.53125,2.515625,0.8679003715515137
06-10-1982,2.515625,0.0,1368000,2.570312976837158,2.5625,0.8840727210044861
07-10-1982,2.5625,0.0,841600,2.625,2.609375,0.9002441167831421
08-10-1982,2.578125,0.0,324800,2.609375,2.59375,0.8948540091514587
11-10-1982,2.585937976837158,0.0,542400,2.640625,2.617187976837158,0.9029396176338196
12-10-1982,2.625,0.0,1148800,2.679687976837158,2.679687976837158,0.9245028495788574
13-10-1982,2.671875,0.0,668800,2.84375,2.828125,0.9757136702537537
14-10-1982,2.65625,0.0,795200,2.84375,2.65625,0.9164166450500488
15-10-1982,2.59375,0.0,521600,2.65625,2.632812976837158,0.9083312153816223
18-10-1982,2.648437976837158,0.0,326400,2.734375,2.734375,0.9433702826499939
19-10-1982,2.75,0.0,448000,2.8125,2.804687976837158,0.967627763748169
20-10-1982,2.8125,0.0,1268800,2.9375,2.875,0.9918861985206604
21-10-1982,2.914062976837158,0.0,7321600,3.023437976837158,2.96875,1.0242301225662231
22-10-1982,3.046875,0.0,2614400,3.140625,3.070312976837158,1.0592700242996216
25-10-1982,2.875,0.0,764800,3.0625,2.890625,0.997277021408081
26-10-1982,2.828125,0.0,988800,2.921875,2.921875,1.0080578327178955
27-10-1982,2.984375,0.0,780800,3.070312976837158,3.070312976837158,1.0592700242996216
28-10-1982,3.054687976837158,0.0,1020800,3.085937976837158,3.0625,1.0565745830535889
29-10-1982,2.96875,0.0,1156800,3.070312976837158,3.007812976837158,1.0377072095870972
01-11-1982,2.945312976837158,0.0,1216000,3.007812976837158,3.0,1.0350112915039062
02-11-1982,2.976562976837158,0.0,1259200,3.039062976837158,3.015625,1.0404025316238403
03-11-1982,3.015625,0.0,1827200,3.179687976837158,3.15625,1.0889184474945068
04-11-1982,3.234375,0.0,2828800,3.351562976837158,3.25,1.1212623119354248
05-11-1982,3.09375,0.0,1425600,3.335937976837158,3.335937976837158,1.1509120464324951
08-11-1982,3.1875,0.0,732800,3.304687976837158,3.273437976837158,1.1293487548828125
09-11-1982,3.21875,0.0,1198400,3.296875,3.21875,1.110480785369873
10-11-1982,3.21875,0.0,739200,3.273437976837158,3.234375,1.115871548652649
11-11-1982,3.15625,0.0,705600,3.21875,3.164062976837158,1.09161376953125
12-11-1982,3.164062976837158,0.0,312000,3.203125,3.171875,1.0943087339401245
15-11-1982,3.03125,0.0,1032000,3.171875,3.0625,1.0565745830535889
16-11-1982,3.015625,0.0,918400,3.09375,3.0625,1.0565745830535889
17-11-1982,3.078125,0.0,1840000,3.140625,3.109375,1.0727466344833374
18-11-1982,3.09375,0.0,504000,3.148437976837158,3.140625,1.0835278034210205
19-11-1982,3.109375,0.0,796800,3.1875,3.109375,1.0727466344833374
22-11-1982,3.078125,0.0,769600,3.210937976837158,3.078125,1.061964988708496
23-11-1982,2.921875,0.0,617600,3.125,2.921875,1.0080578327178955
24-11-1982,2.9375,0.0,529600,3.0625,3.039062976837158,1.0484883785247803
26-11-1982,3.054687976837158,0.0,344000,3.125,3.109375,1.0727466344833374
29-11-1982,3.117187976837158,0.0,272000,3.171875,3.140625,1.0835278034210205
30-11-1982,3.109375,0.0,496000,3.171875,3.140625,1.0835278034210205
01-12-1982,3.1875,0.0,611200,3.234375,3.203125,1.1050901412963867
02-12-1982,3.203125,0.0,649600,3.28125,3.234375,1.115871548652649
03-12-1982,3.1875,0.0,412800,3.25,3.21875,1.110480785369873
06-12-1982,3.21875,0.0,459200,3.265625,3.25,1.1212623119354248
07-12-1982,3.25,0.0,1816000,3.3125,3.265625,1.1266530752182007
08-12-1982,3.21875,0.0,244800,3.28125,3.21875,1.110480785369873
09-12-1982,3.15625,0.0,126400,3.1875,3.15625,1.0889184474945068
10-12-1982,3.078125,0.0,145600,3.179687976837158,3.09375,1.0673558712005615
13-12-1982,2.984375,0.0,572800,3.0625,3.0,1.0350112915039062
14-12-1982,3.0,0.0,286400,3.078125,3.0,1.0350112915039062
15-12-1982,2.96875,0.0,160000,3.0,2.976562976837158,1.0269254446029663
16-12-1982,2.882812976837158,0.0,1177600,2.96875,2.945312976837158,1.0161439180374146
17-12-1982,3.015625,0.0,291200,3.09375,3.09375,1.0673558712005615
20-12-1982,3.046875,0.0,868800,3.09375,3.078125,1.061964988708496
21-12-1982,3.078125,0.0,160000,3.109375,3.109375,1.0727466344833374
22-12-1982,3.109375,0.0,694400,3.234375,3.234375,1.115871548652649
23-12-1982,3.265625,0.0,291200,3.3125,3.28125,1.1320438385009766
27-12-1982,3.109375,0.0,803200,3.28125,3.210937976837158,1.107785701751709
28-12-1982,3.203125,0.0,744000,3.328125,3.296875,1.1374353170394897
29-12-1982,3.234375,0.0,473600,3.304687976837158,3.28125,1.1320438385009766
30-12-1982,3.265625,0.0,315200,3.3125,3.265625,1.1266530752182007
31-12-1982,3.210937976837158,0.0,145600,3.25,3.234375,1.115871548652649
03-01-1983,3.140625,0.0,499200,3.171875,3.15625,1.0889184474945068
04-01-1983,3.140625,0.0,353600,3.21875,3.21875,1.110480785369873
05-01-1983,3.234375,0.0,515200,3.296875,3.257812976837158,1.1239581108093262
06-01-1983,3.265625,0.0,1033600,3.46875,3.421875,1.1805599927902222
07-01-1983,3.421875,0.0,2430400,3.609375,3.570312976837158,1.231771469116211
10-01-1983,3.46875,0.0,899200,3.539062976837158,3.5,1.207513689994812
11-01-1983,3.453125,0.0,830400,3.515625,3.5,1.207513689994812
12-01-1983,3.359375,0.0,593600,3.5,3.359375,1.1589975357055664
13-01-1983,3.265625,0.0,724800,3.390625,3.382812976837158,1.1670832633972168
14-01-1983,3.28125,0.0,454400,3.40625,3.40625,1.175169825553894
17-01-1983,3.382812976837158,0.0,652800,3.414062976837158,3.390625,1.16977858543396
18-01-1983,3.375,0.0,288000,3.484375,3.484375,1.2021232843399048
19-01-1983,3.375,0.0,1323200,3.492187976837158,3.453125,1.191341757774353
20-01-1983,3.328125,0.0,425600,3.429687976837158,3.359375,1.1589975357055664
21-01-1983,3.257812976837158,0.0,241600,3.359375,3.28125,1.1320438385009766
24-01-1983,3.15625,0.0,656000,3.242187976837158,3.21875,1.110480785369873
25-01-1983,3.171875,0.0,332800,3.296875,3.21875,1.110480785369873
26-01-1983,3.21875,0.0,328000,3.265625,3.234375,1.115871548652649
27-01-1983,3.265625,0.0,484800,3.40625,3.359375,1.1589975357055664
28-01-1983,3.375,0.0,462400,3.429687976837158,3.40625,1.175169825553894
31-01-1983,3.40625,0.0,1908800,3.445312976837158,3.429687976837158,1.1832553148269653
01-02-1983,3.375,0.0,1342400,3.453125,3.375,1.1643877029418945
02-02-1983,3.34375,0.0,249600,3.398437976837158,3.375,1.1643877029418945
03-02-1983,3.351562976837158,0.0,200000,3.40625,3.390625,1.16977858543396
04-02-1983,3.34375,0.0,1100800,3.421875,3.40625,1.175169825553894
07-02-1983,3.390625,0.0,1614400,3.460937976837158,3.421875,1.1805599927902222
08-02-1983,3.359375,0.0,667200,3.421875,3.375,1.1643877029418945
09-02-1983,3.3125,0.0,299200,3.375,3.367187976837158,1.1616929769515991
10-02-1983,3.375,0.0,784000,3.40625,3.40625,1.175169825553894
11-02-1983,3.390625,0.0,768000,3.414062976837158,3.40625,1.175169825553894
14-02-1983,3.390625,0.0,532800,3.40625,3.390625,1.16977858543396
15-02-1983,3.328125,0.0,1260800,3.390625,3.34375,1.1536072492599487
16-02-1983,3.34375,0.0,881600,3.398437976837158,3.375,1.1643877029418945
17-02-1983,3.34375,0.0,2440000,3.421875,3.390625,1.16977858543396
18-02-1983,3.375,0.0,846400,3.421875,3.375,1.1643877029418945
22-02-1983,3.375,0.0,1120000,3.40625,3.398437976837158,1.1724735498428345
23-02-1983,3.34375,0.0,1406400,3.398437976837158,3.398437976837158,1.1724735498428345
24-02-1983,3.414062976837158,0.0,2683200,3.5625,3.5625,1.229076623916626
25-02-1983,3.53125,0.0,2368000,3.601562976837158,3.539062976837158,1.220990538597107
28-02-1983,3.578125,0.0,1920000,3.625,3.617187976837158,1.2479441165924072
01-03-1983,3.625,0.0,1411200,3.703125,3.6875,1.2722021341323853
02-03-1983,3.695312976837158,0.0,1604800,3.75,3.742187976837158,1.291069507598877
03-03-1983,3.71875,0.0,1451200,3.765625,3.71875,1.282983422279358
04-03-1983,3.671875,0.0,840000,3.734375,3.703125,1.277592420578003
07-03-1983,3.703125,0.0,425600,3.734375,3.71875,1.282983422279358
08-03-1983,3.65625,0.0,1718400,3.734375,3.65625,1.2614202499389648
09-03-1983,3.640625,0.0,366400,3.6875,3.671875,1.2668119668960571
10-03-1983,3.6875,0.0,595200,3.726562976837158,3.6875,1.2722021341323853
11-03-1983,3.671875,0.0,548800,3.695312976837158,3.695312976837158,1.2748969793319702
14-03-1983,3.671875,0.0,542400,3.734375,3.726562976837158,1.285678744316101
15-03-1983,3.695312976837158,0.0,740800,3.726562976837158,3.726562976837158,1.285678744316101
16-03-1983,3.734375,0.0,1308800,3.757812976837158,3.75,1.2937641143798828
17-03-1983,3.75,0.0,859200,3.828125,3.8125,1.3153268098831177
18-03-1983,3.8125,0.0,1619200,4.0,3.984375,1.3746252059936523
21-03-1983,3.875,0.0,937600,3.976562976837158,3.90625,1.347671389579773
22-03-1983,3.90625,0.0,1076800,3.96875,3.9375,1.358452558517456
23-03-1983,3.921875,0.0,940800,3.960937976837158,3.921875,1.3530611991882324
24-03-1983,3.875,0.0,536000,3.929687976837158,3.890625,1.342280387878418
25-03-1983,3.859375,0.0,564800,3.898437976837158,3.875,1.3368899822235107
28-03-1983,3.859375,0.0,416000,3.898437976837158,3.890625,1.342280387878418
29-03-1983,3.859375,0.0,576000,3.890625,3.859375,1.3315004110336304
30-03-1983,3.789062976837158,0.0,403200,3.867187976837158,3.820312976837158,1.3180230855941772
31-03-1983,3.835937976837158,0.0,547200,3.875,3.84375,1.326108455657959
04-04-1983,3.84375,0.0,168000,3.875,3.859375,1.3315004110336304
05-04-1983,3.84375,0.0,947200,3.875,3.859375,1.3315004110336304
06-04-1983,3.8125,3.84375,960000,3.859375,3.84375,1.326108455657959
07-04-1983,3.828125,3.859375,464000,3.859375,3.84375,1.326108455657959
08-04-1983,3.75,3.84375,219200,3.84375,3.765625,1.2991546392440796
11-04-1983,3.75,3.765625,387200,3.796875,3.765625,1.2991546392440796
12-04-1983,3.78125,3.796875,313600,3.828125,3.828125,1.3207173347473145
13-04-1983,3.84375,3.84375,401600,3.90625,3.90625,1.347671389579773
14-04-1983,3.914062976837158,3.9375,316800,3.953125,3.9375,1.358452558517456
15-04-1983,3.914062976837158,3.953125,286400,3.960937976837158,3.914062976837158,1.3503669500350952
18-04-1983,3.888672113418579,3.914062976837158,337600,3.929687976837158,3.929687976837158,1.3557573556900024
19-04-1983,3.898437976837158,3.929687976837158,494400,3.976562976837158,3.976562976837158,1.3719303607940674
20-04-1983,3.96875,3.976562976837158,198400,3.992187976837158,3.984375,1.3746252059936523
21-04-1983,3.953125,3.984375,465600,4.015625,3.953125,1.363842487335205
22-04-1983,3.9375,3.960937976837158,182400,4.0,3.953125,1.363842487335205
25-04-1983,3.90625,3.953125,468800,4.0,3.96875,1.369234323501587
26-04-1983,3.96875,3.992187976837158,272000,4.015625,4.0,1.38001549243927
27-04-1983,4.0,4.046875,387200,4.09375,4.023437976837158,1.388101577758789
28-04-1983,4.015625,4.03125,571200,4.046875,4.039062976837158,1.3934921026229858
29-04-1983,4.039062976837158,4.0625,619200,4.085937976837158,4.085937976837158,1.4096646308898926
02-05-1983,4.046875,4.085937976837158,670400,4.117187976837158,4.054687976837158,1.3988828659057617
03-05-1983,4.0,4.023437976837158,428800,4.039062976837158,4.039062976837158,1.3934921026229858
04-05-1983,3.976562976837158,4.007812976837158,451200,4.03125,3.992187976837158,1.3900108337402344
05-05-1983,3.921875,3.96875,740800,4.007812976837158,3.9375,1.3709689378738403
06-05-1983,3.953125,3.953125,803200,4.078125,4.046875,1.4090514183044434
09-05-1983,4.0,4.015625,553600,4.0625,4.054687976837158,1.4117718935012817
10-05-1983,4.03125,4.070312976837158,492800,4.070312976837158,4.03125,1.4036113023757935
11-05-1983,4.0,4.039062976837158,252800,4.046875,4.023437976837158,1.4008911848068237
12-05-1983,3.96875,4.023437976837158,396800,4.03125,3.976562976837158,1.3845702409744263
13-05-1983,3.960937976837158,3.992187976837158,225600,3.992187976837158,3.984375,1.3872908353805542
16-05-1983,3.9375,3.96875,356800,4.0,4.0,1.392730712890625
17-05-1983,3.976562976837158,4.0,288000,4.015625,4.015625,1.3981705904006958
18-05-1983,4.007812976837158,4.007812976837158,825600,4.140625,4.03125,1.4036113023757935
19-05-1983,3.921875,3.984375,1417600,3.984375,3.953125,1.3764086961746216
20-05-1983,3.9375,3.953125,321600,4.007812976837158,4.007812976837158,1.3954507112503052
23-05-1983,4.007812976837158,4.015625,488000,4.0625,4.039062976837158,1.4063318967819214
24-05-1983,4.046875,4.046875,355200,4.117187976837158,4.117187976837158,1.4335333108901978
25-05-1983,4.078125,4.09375,580800,4.117187976837158,4.109375,1.4308128356933594
26-05-1983,4.078125,4.09375,1388800,4.25,4.203125,1.4634548425674438
27-05-1983,4.15625,4.203125,209600,4.203125,4.164062976837158,1.449853777885437
31-05-1983,4.078125,4.164062976837158,601600,4.171875,4.09375,1.4253721237182617
01-06-1983,4.0625,4.0625,488000,4.101562976837158,4.101562976837158,1.4280937910079956
02-06-1983,3.984375,4.109375,366400,4.117187976837158,4.03125,1.4036113023757935
03-06-1983,3.96875,4.015625,1065600,4.046875,4.03125,1.4036113023757935
06-06-1983,4.054687976837158,4.0625,5444800,4.078125,4.070312976837158,1.417211890220642
07-06-1983,4.03125,4.085937976837158,457600,4.085937976837158,4.046875,1.4090514183044434
08-06-1983,4.007812976837158,4.046875,444800,4.054687976837158,4.007812976837158,1.3954507112503052
09-06-1983,3.984375,4.015625,427200,4.023437976837158,4.007812976837158,1.3954507112503052
10-06-1983,4.015625,4.023437976837158,1878400,4.0625,4.0625,1.4144920110702515
13-06-1983,4.0625,4.0625,1062400,4.09375,4.078125,1.419932246208191
14-06-1983,4.078125,4.078125,272000,4.109375,4.109375,1.4308128356933594
15-06-1983,4.101562976837158,4.109375,592000,4.125,4.117187976837158,1.4335333108901978
16-06-1983,4.125,4.125,628800,4.15625,4.15625,1.4471334218978882
17-06-1983,4.125,4.15625,1081600,4.164062976837158,4.125,1.4362529516220093
20-06-1983,4.101562976837158,4.109375,222400,4.140625,4.117187976837158,1.4335333108901978
21-06-1983,4.046875,4.101562976837158,340800,4.117187976837158,4.09375,1.4253721237182617
22-06-1983,4.0625,4.085937976837158,435200,4.109375,4.09375,1.4253721237182617
23-06-1983,4.070312976837158,4.09375,145600,4.109375,4.070312976837158,1.417211890220642
24-06-1983,4.0625,4.070312976837158,212800,4.09375,4.09375,1.4253721237182617
27-06-1983,4.0625,4.070312976837158,609600,4.085937976837158,4.078125,1.419932246208191
28-06-1983,4.046875,4.09375,428800,4.109375,4.046875,1.4090514183044434
29-06-1983,3.9375,4.039062976837158,1552000,4.039062976837158,3.9375,1.3709689378738403
30-06-1983,3.921875,3.9375,534400,3.984375,3.96875,1.381850242614746
01-07-1983,3.953125,3.953125,947200,4.023437976837158,4.023437976837158,1.4008911848068237
05-07-1983,3.96875,4.007812976837158,155200,4.007812976837158,3.992187976837158,1.3900108337402344
06-07-1983,3.9375,3.96875,217600,3.992187976837158,3.984375,1.3872908353805542
07-07-1983,3.921875,3.984375,452800,3.984375,3.96875,1.381850242614746
08-07-1983,3.960937976837158,3.96875,152000,3.984375,3.984375,1.3872908353805542
11-07-1983,3.976562976837158,3.984375,395200,3.992187976837158,3.976562976837158,1.3845702409744263
12-07-1983,3.90625,3.976562976837158,569600,3.976562976837158,3.90625,1.3600881099700928
13-07-1983,3.859375,3.890625,291200,3.921875,3.867187976837158,1.3464878797531128
14-07-1983,3.875,3.90625,419200,3.9375,3.898437976837158,1.3573681116104126
15-07-1983,3.8125,3.90625,329600,3.914062976837158,3.828125,1.332886815071106
18-07-1983,3.78125,3.804687976837158,827200,3.828125,3.8125,1.3274462223052979
19-07-1983,3.796875,3.804687976837158,497600,3.820312976837158,3.8125,1.3274462223052979
20-07-1983,3.8125,3.8125,633600,3.875,3.875,1.3492074012756348
21-07-1983,4.0,4.03125,681600,4.03125,4.0,1.392730712890625
22-07-1983,4.015625,4.070312976837158,747200,4.125,4.125,1.4362529516220093
25-07-1983,4.148437976837158,4.148437976837158,441600,4.210937976837158,4.210937976837158,1.466174602508545
26-07-1983,4.21875,4.21875,814400,4.3125,4.3125,1.501537561416626
27-07-1983,4.1875,4.3125,531200,4.3125,4.195312976837158,1.4607349634170532
28-07-1983,4.0625,4.203125,384000,4.210937976837158,4.085937976837158,1.4226528406143188
29-07-1983,3.953125,4.03125,771200,4.054687976837158,3.992187976837158,1.3900108337402344
01-08-1983,3.867187976837158,3.90625,1000000,3.921875,3.914062976837158,1.3628084659576416
02-08-1983,3.90625,3.9375,254400,3.953125,3.914062976837158,1.3628084659576416
03-08-1983,3.84375,3.890625,656000,3.90625,3.875,1.3492074012756348
04-08-1983,3.65625,3.796875,812800,3.84375,3.710937976837158,1.3055610656738281
05-08-1983,3.6875,3.6875,881600,3.757812976837158,3.734375,1.3138059377670288
08-08-1983,3.703125,3.703125,472000,3.828125,3.734375,1.3138059377670288
09-08-1983,3.65625,3.765625,2072000,3.765625,3.671875,1.2918188571929932
10-08-1983,3.5,3.640625,1752000,3.640625,3.53125,1.2423440217971802
11-08-1983,3.5,3.53125,923200,3.609375,3.5625,1.2533384561538696
12-08-1983,3.578125,3.59375,320000,3.65625,3.632812976837158,1.2780747413635254
15-08-1983,3.664062976837158,3.664062976837158,304000,3.765625,3.75,1.3193029165267944
16-08-1983,3.632812976837158,3.75,900800,3.75,3.671875,1.2918188571929932
17-08-1983,3.65625,3.65625,868800,3.75,3.734375,1.3138059377670288
18-08-1983,3.703125,3.765625,305600,3.796875,3.710937976837158,1.3055610656738281
19-08-1983,3.703125,3.71875,187200,3.742187976837158,3.734375,1.3138059377670288
22-08-1983,3.734375,3.742187976837158,1060800,3.8125,3.742187976837158,1.3165549039840698
23-08-1983,3.75,3.773437976837158,288000,3.8125,3.789062976837158,1.3330459594726562
24-08-1983,3.726562976837158,3.765625,225600,3.765625,3.734375,1.3138059377670288
25-08-1983,3.710937976837158,3.71875,550400,3.8125,3.804687976837158,1.3385437726974487
26-08-1983,3.8125,3.8125,433600,3.90625,3.90625,1.3742740154266357
29-08-1983,3.882812976837158,3.921875,259200,3.960937976837158,3.945312976837158,1.3880172967910767
30-08-1983,3.953125,3.953125,1729600,4.070312976837158,4.0,1.4072574377059937
31-08-1983,3.96875,3.96875,924800,3.984375,3.984375,1.4017606973648071
01-09-1983,3.96875,3.96875,502400,4.0625,4.046875,1.4237480163574219
02-09-1983,4.046875,4.0625,310400,4.125,4.125,1.4512333869934082
06-09-1983,4.15625,4.171875,457600,4.203125,4.1875,1.4732229709625244
07-09-1983,4.21875,4.21875,1228800,4.335937976837158,4.335937976837158,1.5254449844360352
08-09-1983,4.320312976837158,4.34375,628800,4.375,4.359375,1.533690094947815
09-09-1983,4.28125,4.359375,2353600,4.375,4.28125,1.5062053203582764
12-09-1983,4.25,4.296875,604800,4.375,4.257812976837158,1.4979584217071533
13-09-1983,4.125,4.265625,381600,4.265625,4.1875,1.4732229709625244
14-09-1983,4.15625,4.21875,126400,4.21875,4.203125,1.4787189960479736
15-09-1983,4.1875,4.203125,356800,4.21875,4.21875,1.484216570854187
16-09-1983,4.0625,4.1875,581600,4.1875,4.09375,1.4402390718460083
19-09-1983,4.09375,4.125,172800,4.21875,4.171875,1.4677256345748901
20-09-1983,4.140625,4.140625,395200,4.25,4.25,1.4952107667922974
21-09-1983,4.203125,4.25,999200,4.46875,4.46875,1.5721697807312012
22-09-1983,4.375,4.46875,1304000,4.46875,4.4375,1.56117582321167
23-09-1983,4.40625,4.421875,452800,4.546875,4.546875,1.599655270576477
26-09-1983,4.46875,4.546875,338400,4.578125,4.484375,1.5776666402816772
27-09-1983,4.4375,4.5,402400,4.53125,4.5,1.5831642150878906
28-09-1983,4.453125,4.46875,150400,4.53125,4.453125,1.566672682762146
29-09-1983,4.34375,4.4375,211200,4.5,4.34375,1.5281938314437866
30-09-1983,4.09375,4.28125,1076800,4.28125,4.109375,1.4457361698150635
03-10-1983,4.015625,4.109375,313600,4.109375,4.109375,1.4457361698150635
04-10-1983,4.078125,4.078125,366400,4.265625,4.234375,1.4897140264511108
05-10-1983,4.15625,4.1875,376000,4.25,4.25,1.4952107667922974
06-10-1983,4.21875,4.25,899200,4.390625,4.34375,1.5281938314437866
07-10-1983,4.5625,4.5625,759200,4.625,4.609375,1.6216424703598022
10-10-1983,4.515625,4.5625,546400,4.5625,4.515625,1.5886609554290771
11-10-1983,4.5,4.5625,453600,4.59375,4.5,1.5831642150878906
12-10-1983,4.46875,4.5,406400,4.578125,4.5625,1.60515296459198
13-10-1983,4.5625,4.625,558400,4.65625,4.578125,1.610649824142456
14-10-1983,4.515625,4.5625,148000,4.609375,4.546875,1.599655270576477
17-10-1983,4.375,4.53125,324000,4.53125,4.40625,1.5501813888549805
18-10-1983,4.375,4.515625,324000,4.53125,4.40625,1.5501813888549805
19-10-1983,4.375,4.421875,2216000,4.5625,4.40625,1.5501813888549805
20-10-1983,4.40625,4.4375,604800,4.53125,4.46875,1.5721697807312012
21-10-1983,4.453125,4.453125,1336000,4.5625,4.53125,1.5941580533981323
24-10-1983,4.5,4.53125,313600,4.578125,4.5625,1.60515296459198
25-10-1983,4.53125,4.5625,668800,4.59375,4.546875,1.599655270576477
26-10-1983,4.453125,4.546875,351200,4.578125,4.515625,1.5886609554290771
27-10-1983,4.484375,4.5,41600,4.5625,4.484375,1.5776666402816772
28-10-1983,4.484375,4.484375,607200,4.53125,4.5,1.5831642150878906
31-10-1983,4.515625,4.53125,478400,4.59375,4.5625,1.60515296459198
01-11-1983,4.4375,4.578125,793600,4.578125,4.46875,1.5721697807312012
02-11-1983,4.453125,4.46875,877600,4.5625,4.546875,1.599655270576477
03-11-1983,4.453125,4.53125,236000,4.53125,4.46875,1.5861233472824097
04-11-1983,4.34375,4.375,336800,4.453125,4.34375,1.5417568683624268
07-11-1983,4.25,4.375,408000,4.40625,4.28125,1.5195730924606323
08-11-1983,4.203125,4.28125,435200,4.28125,4.203125,1.4918432235717773
09-11-1983,4.203125,4.234375,176800,4.28125,4.25,1.5084812641143799
10-11-1983,4.1875,4.25,495200,4.28125,4.203125,1.4918432235717773
11-11-1983,4.21875,4.234375,1606400,4.3125,4.3125,1.5306648015975952
14-11-1983,4.328125,4.328125,616000,4.4375,4.375,1.5528488159179688
15-11-1983,4.34375,4.359375,920800,4.390625,4.34375,1.5417568683624268
16-11-1983,4.296875,4.3125,454400,4.40625,4.40625,1.563940167427063
17-11-1983,4.359375,4.359375,792000,4.421875,4.390625,1.558393955230713
18-11-1983,4.328125,4.359375,531200,4.390625,4.390625,1.558393955230713
21-11-1983,4.375,4.421875,281600,4.4375,4.40625,1.563940167427063
22-11-1983,4.40625,4.4375,636800,4.5625,4.53125,1.6083065271377563
23-11-1983,4.546875,4.546875,619200,4.65625,4.578125,1.6249443292617798
25-11-1983,4.59375,4.625,273600,4.625,4.59375,1.630489706993103
28-11-1983,4.53125,4.59375,770400,4.625,4.5625,1.619399070739746
29-11-1983,4.4375,4.5625,1019200,4.5625,4.4375,1.5750317573547363
30-11-1983,4.46875,4.5,844000,4.546875,4.515625,1.6027610301971436
01-12-1983,4.484375,4.484375,309600,4.546875,4.5,1.597214937210083
02-12-1983,4.46875,4.46875,124800,4.5625,4.546875,1.613852858543396
05-12-1983,4.4375,4.515625,754400,4.515625,4.5,1.597214937210083
06-12-1983,4.46875,4.515625,184000,4.515625,4.46875,1.5861233472824097
07-12-1983,4.4375,4.4375,735200,4.5,4.4375,1.5750317573547363
08-12-1983,4.40625,4.46875,628800,4.46875,4.4375,1.5750317573547363
09-12-1983,4.40625,4.40625,500000,4.453125,4.4375,1.5750317573547363
12-12-1983,4.390625,4.390625,120000,4.4375,4.390625,1.558393955230713
13-12-1983,4.375,4.40625,100000,4.453125,4.40625,1.563940167427063
14-12-1983,4.34375,4.375,1194400,4.40625,4.34375,1.5417568683624268
15-12-1983,4.25,4.25,192800,4.3125,4.265625,1.5140268802642822
16-12-1983,4.1875,4.265625,640800,4.28125,4.234375,1.502935767173767
19-12-1983,4.203125,4.203125,1264000,4.375,4.296875,1.5251191854476929
20-12-1983,4.28125,4.28125,405600,4.375,4.296875,1.5251191854476929
21-12-1983,4.21875,4.296875,792800,4.3125,4.3125,1.5306648015975952
22-12-1983,4.25,4.3125,403200,4.34375,4.25,1.5084812641143799
23-12-1983,4.203125,4.203125,127200,4.25,4.21875,1.497389793395996
27-12-1983,4.234375,4.234375,384800,4.328125,4.328125,1.536210060119629
28-12-1983,4.25,4.3125,1399200,4.328125,4.296875,1.5251191854476929
29-12-1983,4.296875,4.3125,188800,4.4375,4.4375,1.5750317573547363
30-12-1983,4.34375,4.46875,563200,4.46875,4.359375,1.54730224609375
03-01-1984,4.328125,4.328125,460000,4.453125,4.34375,1.5417568683624268
04-01-1984,4.3125,4.328125,1320800,4.375,4.34375,1.5417568683624268
05-01-1984,4.34375,4.375,1296000,4.609375,4.5625,1.619399070739746
06-01-1984,4.53125,4.59375,693600,4.625,4.59375,1.630489706993103
09-01-1984,4.578125,4.59375,900800,4.75,4.671875,1.6582186222076416
10-01-1984,4.578125,4.703125,532000,4.71875,4.578125,1.6249443292617798
11-01-1984,4.5,4.5625,502400,4.609375,4.578125,1.6249443292617798
12-01-1984,4.46875,4.53125,204000,4.5625,4.5,1.597214937210083
13-01-1984,4.3125,4.4375,294400,4.4375,4.375,1.5528488159179688
16-01-1984,4.3125,4.34375,391200,4.421875,4.421875,1.5694849491119385
17-01-1984,4.375,4.421875,351200,4.4375,4.421875,1.5694849491119385
18-01-1984,4.34375,4.421875,552800,4.4375,4.375,1.5528488159179688
19-01-1984,4.40625,4.40625,529600,4.46875,4.4375,1.5750317573547363
20-01-1984,4.453125,4.484375,268000,4.484375,4.453125,1.5805772542953491
23-01-1984,4.296875,4.4375,2306400,4.4375,4.296875,1.5251191854476929
24-01-1984,4.21875,4.296875,504800,4.328125,4.21875,1.497389793395996
25-01-1984,4.1875,4.25,560800,4.296875,4.21875,1.497389793395996
26-01-1984,4.0625,4.15625,846400,4.1875,4.15625,1.4752051830291748
27-01-1984,4.09375,4.125,588800,4.1875,4.125,1.4641133546829224
30-01-1984,3.96875,4.078125,643200,4.078125,4.0,1.4197468757629395
31-01-1984,3.96875,4.0,533600,4.09375,4.0,1.4197468757629395
01-02-1984,3.8125,4.0,642400,4.0625,3.96875,1.4086552858352661
02-02-1984,3.859375,3.921875,502400,3.953125,3.875,1.3753796815872192
03-02-1984,3.90625,3.90625,748800,4.0,3.9375,1.397563099861145
06-02-1984,3.859375,3.890625,1136800,3.96875,3.9375,1.397563099861145
07-02-1984,3.875,3.921875,891200,3.953125,3.953125,1.4031082391738892
08-02-1984,3.921875,4.03125,405600,4.0625,3.9375,1.397563099861145
09-02-1984,3.8125,3.921875,765600,3.96875,3.84375,1.3642878532409668
10-02-1984,3.71875,3.84375,756000,3.875,3.78125,1.3421043157577515
13-02-1984,3.71875,3.796875,352000,3.796875,3.765625,1.3365579843521118
14-02-1984,3.625,3.78125,989600,3.78125,3.75,1.3453025817871094
15-02-1984,3.59375,3.75,422400,3.75,3.625,1.3004591464996338
16-02-1984,3.546875,3.671875,396800,3.6875,3.625,1.3004591464996338
17-02-1984,3.421875,3.625,993600,3.640625,3.46875,1.2444050312042236
21-02-1984,3.4375,3.484375,616000,3.5,3.484375,1.2500107288360596
22-02-1984,3.4375,3.484375,3064800,3.609375,3.578125,1.283643126487732
23-02-1984,3.4375,3.578125,684000,3.578125,3.546875,1.272432565689087
24-02-1984,3.53125,3.5625,696000,3.625,3.59375,1.289249062538147
27-02-1984,3.640625,3.671875,732800,3.8125,3.78125,1.3565133810043335
28-02-1984,3.625,3.78125,644800,3.78125,3.65625,1.3116708993911743
29-02-1984,3.65625,3.65625,277600,3.796875,3.734375,1.3396967649459839
01-03-1984,3.6875,3.75,355200,3.8125,3.78125,1.3565133810043335
02-03-1984,3.6875,3.75,1381600,3.8125,3.78125,1.3565133810043335
05-03-1984,3.71875,3.8125,566400,3.90625,3.71875,1.3340915441513062
06-03-1984,3.71875,3.75,408800,3.8125,3.765625,1.3509085178375244
07-03-1984,3.6875,3.71875,195200,3.8125,3.75,1.3453025817871094
08-03-1984,3.65625,3.734375,291200,3.765625,3.71875,1.3340915441513062
09-03-1984,3.65625,3.75,484000,3.75,3.65625,1.3116708993911743
12-03-1984,3.671875,3.671875,291200,3.796875,3.75,1.3453025817871094
13-03-1984,3.78125,3.78125,470400,3.875,3.8125,1.3677245378494263
14-03-1984,3.78125,3.8125,1076000,3.859375,3.8125,1.3677245378494263
15-03-1984,3.78125,3.8125,289600,3.859375,3.8125,1.3677245378494263
16-03-1984,3.890625,3.90625,772000,3.9375,3.921875,1.4069616794586182
19-03-1984,3.8125,3.890625,313600,3.890625,3.859375,1.3845409154891968
20-03-1984,3.796875,3.828125,220800,3.859375,3.859375,1.3845409154891968
21-03-1984,3.828125,3.828125,252800,3.9375,3.875,1.3901464939117432
22-03-1984,3.78125,3.90625,209600,3.90625,3.828125,1.3733296394348145
23-03-1984,3.75,3.8125,304800,3.84375,3.78125,1.3565133810043335
26-03-1984,3.75,3.78125,122400,3.8125,3.796875,1.3621186017990112
27-03-1984,3.75,3.765625,103200,3.8125,3.796875,1.3621186017990112
28-03-1984,3.78125,3.796875,248800,3.828125,3.8125,1.3677245378494263
29-03-1984,3.765625,3.828125,260800,3.828125,3.796875,1.3621186017990112
30-03-1984,3.71875,3.796875,354400,3.8125,3.796875,1.3621186017990112
02-04-1984,3.640625,3.765625,433600,3.796875,3.640625,1.3060649633407593
03-04-1984,3.625,3.640625,559200,3.71875,3.6875,1.322880506515503
04-04-1984,3.65625,3.65625,249600,3.71875,3.703125,1.3284871578216553
05-04-1984,3.65625,3.703125,140800,3.71875,3.703125,1.3284871578216553
06-04-1984,3.640625,3.671875,188000,3.6875,3.65625,1.3116708993911743
09-04-1984,3.5,3.6875,860800,3.71875,3.515625,1.261221170425415
10-04-1984,3.453125,3.5,480800,3.53125,3.453125,1.2388001680374146
11-04-1984,3.390625,3.4375,2084800,3.453125,3.4375,1.23319411277771
12-04-1984,3.484375,3.484375,885600,3.578125,3.546875,1.272432565689087
13-04-1984,3.4375,3.578125,2246400,3.59375,3.484375,1.2500107288360596
16-04-1984,3.421875,3.5,888800,3.5,3.46875,1.2444050312042236
17-04-1984,3.484375,3.5,1244800,3.546875,3.5,1.255616545677185
18-04-1984,3.5,3.515625,1323200,3.53125,3.515625,1.261221170425415
19-04-1984,3.5,3.53125,290400,3.578125,3.5625,1.2780379056930542
23-04-1984,3.546875,3.59375,242400,3.609375,3.5625,1.2780379056930542
24-04-1984,3.484375,3.53125,612800,3.609375,3.5,1.255616545677185
25-04-1984,3.515625,3.53125,840800,3.59375,3.5625,1.2780379056930542
26-04-1984,3.59375,3.59375,1172800,3.75,3.703125,1.3284871578216553
27-04-1984,3.703125,3.734375,596800,3.8125,3.75,1.3453025817871094
30-04-1984,3.703125,3.75,315200,3.796875,3.78125,1.3565133810043335
01-05-1984,3.78125,3.796875,473600,3.84375,3.84375,1.3789348602294922
02-05-1984,3.78125,3.859375,392800,3.875,3.859375,1.3845409154891968
03-05-1984,3.78125,3.890625,353600,3.890625,3.828125,1.3733296394348145
04-05-1984,3.59375,3.78125,682400,3.796875,3.65625,1.3272727727890015
07-05-1984,3.65625,3.71875,988000,3.75,3.75,1.361305594444275
08-05-1984,3.71875,3.75,811200,3.828125,3.8125,1.3839939832687378
09-05-1984,3.765625,3.8125,752000,3.875,3.78125,1.3726493120193481
10-05-1984,3.734375,3.78125,208800,3.78125,3.78125,1.3726493120193481
11-05-1984,3.5625,3.78125,575200,3.78125,3.703125,1.344289779663086
14-05-1984,3.578125,3.71875,273600,3.71875,3.625,1.3159282207489014
15-05-1984,3.5625,3.625,702400,3.640625,3.578125,1.298911452293396
16-05-1984,3.453125,3.5625,1334400,3.5625,3.5625,1.2932400703430176
17-05-1984,3.46875,3.53125,1342400,3.5625,3.46875,1.259207010269165
18-05-1984,3.40625,3.453125,908800,3.5,3.421875,1.2421908378601074
21-05-1984,3.390625,3.40625,536800,3.46875,3.421875,1.2421908378601074
22-05-1984,3.28125,3.421875,1011200,3.421875,3.34375,1.2138304710388184
23-05-1984,3.34375,3.359375,583200,3.421875,3.390625,1.230846643447876
24-05-1984,3.296875,3.375,1495200,3.40625,3.34375,1.2138304710388184
25-05-1984,3.28125,3.375,728000,3.40625,3.3125,1.2024860382080078
29-05-1984,3.1875,3.34375,768000,3.359375,3.25,1.1797984838485718
30-05-1984,3.125,3.28125,3813600,3.28125,3.15625,1.1457653045654297
31-05-1984,3.09375,3.109375,1299200,3.171875,3.125,1.1344205141067505
01-06-1984,3.171875,3.1875,1281600,3.234375,3.203125,1.162781834602356
04-06-1984,3.21875,3.21875,2139200,3.46875,3.375,1.2251746654510498
05-06-1984,3.28125,3.40625,825600,3.40625,3.34375,1.2138304710388184
06-06-1984,3.40625,3.40625,440000,3.46875,3.46875,1.259207010269165
07-06-1984,3.46875,3.46875,6442400,3.515625,3.515625,1.276222825050354
08-06-1984,3.484375,3.53125,396800,3.546875,3.53125,1.281896710395813
11-06-1984,3.515625,3.5625,323200,3.5625,3.53125,1.281896710395813
12-06-1984,3.453125,3.484375,284000,3.5,3.5,1.2705512046813965
13-06-1984,3.484375,3.5,260800,3.53125,3.515625,1.276222825050354
14-06-1984,3.421875,3.5,861600,3.515625,3.453125,1.2535361051559448
15-06-1984,3.375,3.453125,334400,3.484375,3.40625,1.236519694328308
18-06-1984,3.375,3.375,472000,3.484375,3.46875,1.259207010269165
19-06-1984,3.4375,3.5,385600,3.5,3.484375,1.2648793458938599
20-06-1984,3.375,3.453125,2826400,3.46875,3.46875,1.259207010269165
21-06-1984,3.421875,3.46875,983200,3.46875,3.453125,1.2535361051559448
22-06-1984,3.390625,3.453125,839200,3.453125,3.453125,1.2535361051559448
25-06-1984,3.453125,3.484375,1771200,3.515625,3.46875,1.259207010269165
26-06-1984,3.46875,3.5,2021600,3.546875,3.46875,1.259207010269165
27-06-1984,3.375,3.4375,542400,3.46875,3.4375,1.2478622198104858
28-06-1984,3.390625,3.4375,572000,3.4375,3.4375,1.2478622198104858
29-06-1984,3.4375,3.4375,1027200,3.484375,3.484375,1.2648793458938599
02-07-1984,3.453125,3.53125,511200,3.53125,3.484375,1.2648793458938599
03-07-1984,3.46875,3.5,676000,3.59375,3.5625,1.2932400703430176
05-07-1984,3.5,3.5625,293600,3.578125,3.546875,1.2875679731369019
06-07-1984,3.484375,3.53125,331200,3.65625,3.546875,1.2875679731369019
09-07-1984,3.578125,3.59375,264000,3.625,3.625,1.3159282207489014
10-07-1984,3.65625,3.65625,552800,3.78125,3.71875,1.3499608039855957
11-07-1984,3.65625,3.71875,184000,3.75,3.6875,1.3386168479919434
12-07-1984,3.5625,3.625,382400,3.6875,3.625,1.3159282207489014
13-07-1984,3.546875,3.65625,687200,3.6875,3.609375,1.310255765914917
16-07-1984,3.546875,3.609375,436000,3.65625,3.625,1.3159282207489014
17-07-1984,3.609375,3.625,928800,3.6875,3.65625,1.3272727727890015
18-07-1984,3.53125,3.65625,272800,3.65625,3.625,1.3159282207489014
19-07-1984,3.46875,3.625,314400,3.625,3.5,1.2705512046813965
20-07-1984,3.53125,3.53125,136000,3.625,3.59375,1.3045841455459595
23-07-1984,3.53125,3.59375,532000,3.59375,3.546875,1.2875679731369019
24-07-1984,3.53125,3.546875,476800,3.59375,3.546875,1.2875679731369019
25-07-1984,3.515625,3.546875,224800,3.578125,3.546875,1.2875679731369019
26-07-1984,3.5,3.578125,936800,3.578125,3.53125,1.281896710395813
27-07-1984,3.46875,3.5,457600,3.625,3.53125,1.281896710395813
30-07-1984,3.46875,3.546875,628000,3.609375,3.5,1.2705512046813965
31-07-1984,3.40625,3.484375,531200,3.53125,3.453125,1.2535361051559448
01-08-1984,3.484375,3.484375,1785600,3.734375,3.625,1.3159282207489014
02-08-1984,3.625,3.625,1441600,3.75,3.75,1.361305594444275
03-08-1984,3.828125,3.875,1789600,3.9375,3.875,1.4066821336746216
06-08-1984,3.8125,3.859375,2960800,3.9375,3.9375,1.4461647272109985
07-08-1984,3.890625,3.90625,716000,4.046875,3.984375,1.4633815288543701
08-08-1984,3.9375,3.984375,592000,4.0,3.9375,1.4461647272109985
09-08-1984,3.875,3.9375,1179200,4.125,4.109375,1.5092902183532715
10-08-1984,4.09375,4.09375,1677600,4.234375,4.1875,1.5379843711853027
13-08-1984,4.0625,4.15625,1063200,4.1875,4.078125,1.4978132247924805
14-08-1984,4.09375,4.15625,637600,4.15625,4.09375,1.5035524368286133
15-08-1984,3.96875,4.03125,536000,4.109375,4.078125,1.4978132247924805
16-08-1984,4.046875,4.046875,495200,4.15625,4.09375,1.5035524368286133
17-08-1984,4.09375,4.125,474400,4.15625,4.109375,1.5092902183532715
20-08-1984,4.09375,4.09375,893600,4.1875,4.1875,1.5379843711853027
21-08-1984,4.15625,4.21875,700000,4.28125,4.234375,1.5552011728286743
22-08-1984,4.125,4.234375,1062400,4.234375,4.21875,1.549461841583252
23-08-1984,4.171875,4.1875,199200,4.21875,4.1875,1.5379843711853027
24-08-1984,4.1875,4.1875,376800,4.3125,4.296875,1.5781569480895996
27-08-1984,4.21875,4.3125,188800,4.3125,4.28125,1.572417140007019
28-08-1984,4.21875,4.25,974400,4.296875,4.234375,1.5552011728286743
29-08-1984,4.171875,4.25,725600,4.28125,4.1875,1.5379843711853027
30-08-1984,4.140625,4.15625,276000,4.203125,4.15625,1.526507019996643
31-08-1984,4.09375,4.125,365600,4.1875,4.1875,1.5379843711853027
04-09-1984,4.140625,4.15625,382400,4.171875,4.171875,1.5322455167770386
05-09-1984,4.078125,4.140625,368000,4.171875,4.140625,1.520768642425537
06-09-1984,4.171875,4.171875,220000,4.203125,4.1875,1.5379843711853027
07-09-1984,4.15625,4.234375,332000,4.25,4.1875,1.5379843711853027
10-09-1984,4.140625,4.15625,212800,4.21875,4.1875,1.5379843711853027
11-09-1984,4.21875,4.21875,533600,4.28125,4.25,1.5609393119812012
12-09-1984,4.1875,4.21875,748800,4.25,4.21875,1.549461841583252
13-09-1984,4.1875,4.1875,1043200,4.34375,4.34375,1.5953724384307861
14-09-1984,4.296875,4.359375,648800,4.375,4.34375,1.5953724384307861
17-09-1984,4.3125,4.3125,676800,4.40625,4.40625,1.6183265447616577
18-09-1984,4.40625,4.421875,744800,4.484375,4.484375,1.647020936012268
19-09-1984,4.421875,4.453125,767200,4.515625,4.4375,1.6298052072525024
20-09-1984,4.40625,4.40625,536800,4.484375,4.46875,1.6412822008132935
21-09-1984,4.4375,4.4375,721600,4.484375,4.4375,1.6298052072525024
24-09-1984,4.40625,4.421875,444000,4.484375,4.46875,1.6412822008132935
25-09-1984,4.375,4.453125,1692000,4.453125,4.421875,1.6240665912628174
26-09-1984,4.359375,4.40625,603200,4.46875,4.359375,1.601110816001892
27-09-1984,4.28125,4.390625,757600,4.40625,4.375,1.6068499088287354
28-09-1984,4.15625,4.265625,817600,4.265625,4.21875,1.549461841583252
01-10-1984,4.171875,4.1875,296800,4.25,4.21875,1.549461841583252
02-10-1984,4.171875,4.203125,294400,4.28125,4.171875,1.5322455167770386
03-10-1984,4.0,4.140625,1790400,4.1875,4.03125,1.4805965423583984
04-10-1984,4.03125,4.03125,644000,4.09375,4.09375,1.5035524368286133
05-10-1984,4.125,4.125,310400,4.21875,4.171875,1.5322455167770386
08-10-1984,4.078125,4.15625,121600,4.171875,4.109375,1.5092902183532715
09-10-1984,4.09375,4.109375,1056000,4.15625,4.140625,1.520768642425537
10-10-1984,4.03125,4.140625,262400,4.15625,4.15625,1.526507019996643
11-10-1984,4.140625,4.140625,126400,4.21875,4.21875,1.549461841583252
12-10-1984,4.1875,4.1875,442400,4.328125,4.296875,1.5781569480895996
15-10-1984,4.28125,4.3125,1718400,4.390625,4.34375,1.5953724384307861
16-10-1984,4.1875,4.328125,244000,4.34375,4.21875,1.549461841583252
17-10-1984,4.1875,4.21875,328800,4.28125,4.25,1.5609393119812012
18-10-1984,4.21875,4.21875,368000,4.34375,4.34375,1.5953724384307861
19-10-1984,4.34375,4.34375,1361600,4.5625,4.421875,1.6240665912628174
22-10-1984,4.375,4.421875,663200,4.421875,4.375,1.6068499088287354
23-10-1984,4.3125,4.34375,997600,4.375,4.34375,1.5953724384307861
24-10-1984,4.328125,4.328125,234400,4.4375,4.390625,1.6125882863998413
25-10-1984,4.328125,4.375,1270400,4.390625,4.34375,1.5953724384307861
26-10-1984,4.234375,4.3125,825600,4.34375,4.28125,1.572417140007019
29-10-1984,4.25,4.265625,343200,4.28125,4.25,1.5609393119812012
30-10-1984,4.21875,4.25,420000,4.359375,4.328125,1.5896327495574951
31-10-1984,4.28125,4.28125,791200,4.3125,4.296875,1.5781569480895996
01-11-1984,4.09375,4.125,859200,4.15625,4.125,1.5150294303894043
02-11-1984,4.0625,4.078125,1601600,4.171875,4.140625,1.537541389465332
05-11-1984,4.109375,4.125,407200,4.203125,4.203125,1.5607492923736572
06-11-1984,4.21875,4.21875,916000,4.296875,4.296875,1.5955619812011719
07-11-1984,4.234375,4.28125,539200,4.296875,4.28125,1.5897603034973145
08-11-1984,4.25,4.28125,999200,4.296875,4.28125,1.5897603034973145
09-11-1984,4.234375,4.296875,480000,4.3125,4.28125,1.5897603034973145
12-11-1984,4.265625,4.265625,361600,4.3125,4.296875,1.5955619812011719
13-11-1984,4.234375,4.265625,615200,4.296875,4.28125,1.5897603034973145
14-11-1984,4.25,4.265625,357600,4.328125,4.3125,1.601364254951477
15-11-1984,4.28125,4.3125,764000,4.3125,4.3125,1.601364254951477
16-11-1984,4.28125,4.3125,492000,4.359375,4.328125,1.6071659326553345
19-11-1984,4.28125,4.296875,768000,4.375,4.3125,1.601364254951477
20-11-1984,4.21875,4.265625,313600,4.296875,4.25,1.578156590461731
21-11-1984,4.21875,4.28125,612800,4.28125,4.25,1.578156590461731
23-11-1984,4.21875,4.234375,168000,4.28125,4.25,1.578156590461731
26-11-1984,4.203125,4.25,520800,4.25,4.234375,1.5723539590835571
27-11-1984,4.171875,4.203125,790400,4.234375,4.203125,1.5607492923736572
28-11-1984,4.125,4.1875,481600,4.1875,4.140625,1.537541389465332
29-11-1984,4.03125,4.109375,733600,4.125,4.078125,1.5143327713012695
30-11-1984,4.078125,4.125,350400,4.1875,4.109375,1.5259374380111694
03-12-1984,4.0625,4.078125,244800,4.125,4.078125,1.5143327713012695
04-12-1984,4.078125,4.078125,598400,4.1875,4.15625,1.543344259262085
05-12-1984,4.0625,4.125,287200,4.125,4.09375,1.5201365947723389
06-12-1984,4.078125,4.09375,384800,4.171875,4.140625,1.537541389465332
07-12-1984,4.09375,4.09375,342400,4.140625,4.125,1.5317401885986328
10-12-1984,4.125,4.125,331200,4.171875,4.140625,1.537541389465332
11-12-1984,4.125,4.125,416000,4.1875,4.140625,1.537541389465332
12-12-1984,4.125,4.125,872800,4.15625,4.140625,1.537541389465332
13-12-1984,4.09375,4.125,420000,4.15625,4.109375,1.5259374380111694
14-12-1984,4.0625,4.078125,412000,4.125,4.09375,1.5201365947723389
17-12-1984,4.0,4.125,1825600,4.125,4.0625,1.508530855178833
18-12-1984,4.09375,4.09375,884000,4.171875,4.171875,1.5491453409194946
19-12-1984,4.15625,4.15625,755200,4.21875,4.15625,1.543344259262085
20-12-1984,4.125,4.203125,779200,4.21875,4.125,1.5317401885986328
21-12-1984,3.9375,4.09375,1142400,4.15625,4.046875,1.502729058265686
24-12-1984,4.046875,4.078125,260800,4.125,4.109375,1.5259374380111694
26-12-1984,4.03125,4.109375,103200,4.109375,4.046875,1.502729058265686
27-12-1984,4.046875,4.078125,1440800,4.09375,4.0625,1.508530855178833
28-12-1984,4.0,4.03125,319200,4.0625,4.046875,1.502729058265686
31-12-1984,4.046875,4.078125,479200,4.171875,4.109375,1.5259374380111694
02-01-1985,4.109375,4.109375,910400,4.203125,4.15625,1.543344259262085
03-01-1985,4.125,4.15625,364800,4.171875,4.15625,1.543344259262085
04-01-1985,4.125,4.140625,332800,4.171875,4.125,1.5317401885986328
07-01-1985,4.140625,4.171875,1047200,4.21875,4.171875,1.5491453409194946
08-01-1985,4.15625,4.171875,320800,4.203125,4.1875,1.5549474954605103
09-01-1985,4.1875,4.21875,337600,4.21875,4.21875,1.5665515661239624
10-01-1985,4.203125,4.21875,1797600,4.296875,4.296875,1.5955619812011719
11-01-1985,4.234375,4.296875,1031200,4.3125,4.28125,1.5897603034973145
14-01-1985,4.25,4.25,2920800,4.328125,4.328125,1.6071659326553345
15-01-1985,4.296875,4.328125,5229600,4.4375,4.40625,1.636176347732544
16-01-1985,4.40625,4.5,13840000,4.5625,4.515625,1.6767899990081787
17-01-1985,4.484375,4.515625,1127200,4.515625,4.5,1.6709877252578735
18-01-1985,4.515625,4.53125,2415200,4.578125,4.546875,1.6883947849273682
21-01-1985,4.53125,4.53125,1831200,4.71875,4.71875,1.7522175312042236
22-01-1985,4.71875,4.734375,2558400,4.859375,4.734375,1.7580199241638184
23-01-1985,4.71875,4.75,644800,4.796875,4.765625,1.7696236371994019
24-01-1985,4.71875,4.734375,940800,4.796875,4.734375,1.7580199241638184
25-01-1985,4.71875,4.71875,966400,4.921875,4.921875,1.827642560005188
28-01-1985,4.859375,4.875,801600,5.0,5.0,1.856654167175293
29-01-1985,4.875,4.921875,579200,4.96875,4.96875,1.8450497388839722
30-01-1985,4.890625,4.984375,1524000,4.984375,4.96875,1.8450497388839722
31-01-1985,4.78125,4.875,620800,4.90625,4.84375,1.798633337020874
01-02-1985,4.78125,4.8125,423200,4.84375,4.78125,1.775427222251892
04-02-1985,4.765625,4.765625,1716000,4.828125,4.8125,1.7870301008224487
05-02-1985,4.75,4.8125,636800,4.828125,4.78125,1.775427222251892
06-02-1985,4.65625,4.765625,1779200,4.8125,4.703125,1.7464146614074707
07-02-1985,4.6875,4.703125,568000,4.78125,4.78125,1.775427222251892
08-02-1985,4.75,4.78125,959200,4.859375,4.859375,1.804436206817627
11-02-1985,4.78125,4.8125,571200,4.8125,4.796875,1.799744725227356
12-02-1985,4.71875,4.765625,586400,4.796875,4.734375,1.7762963771820068
13-02-1985,4.6875,4.71875,432000,4.75,4.734375,1.7762963771820068
14-02-1985,4.65625,4.734375,1396800,4.734375,4.6875,1.7587089538574219
15-02-1985,4.625,4.65625,1879200,4.65625,4.625,1.7352590560913086
19-02-1985,4.609375,4.6875,924800,4.6875,4.609375,1.729396104812622
20-02-1985,4.578125,4.609375,1586400,4.625,4.59375,1.723534345626831
21-02-1985,4.546875,4.59375,1268000,4.59375,4.578125,1.7176728248596191
22-02-1985,4.546875,4.5625,1045600,4.609375,4.59375,1.723534345626831
25-02-1985,4.609375,4.609375,356800,4.609375,4.609375,1.729396104812622
26-02-1985,4.59375,4.609375,665600,4.65625,4.640625,1.7411226034164429
27-02-1985,4.625,4.625,451200,4.6875,4.65625,1.7469843626022339
28-02-1985,4.671875,4.6875,763200,4.71875,4.71875,1.770434021949768
01-03-1985,4.71875,4.75,774400,4.859375,4.828125,1.81147038936615
04-03-1985,4.734375,4.796875,907200,4.8125,4.765625,1.788021206855774
05-03-1985,4.71875,4.796875,940000,4.84375,4.75,1.7821589708328247
06-03-1985,4.75,4.75,1347200,4.859375,4.8125,1.805607795715332
07-03-1985,4.765625,4.78125,678400,4.890625,4.828125,1.81147038936615
08-03-1985,4.8125,4.8125,493600,4.90625,4.90625,1.840782642364502
11-03-1985,4.859375,4.875,1016000,4.953125,4.875,1.8290563821792603
12-03-1985,4.6875,4.84375,862400,4.875,4.75,1.7821589708328247
13-03-1985,4.6875,4.71875,280800,4.796875,4.703125,1.7645715475082397
14-03-1985,4.65625,4.6875,569600,4.8125,4.796875,1.799744725227356
15-03-1985,4.625,4.765625,582400,4.8125,4.625,1.7352590560913086
18-03-1985,4.625,4.625,464000,4.703125,4.671875,1.7528467178344727
19-03-1985,4.640625,4.640625,392800,4.796875,4.75,1.7821589708328247
20-03-1985,4.65625,4.71875,212800,4.71875,4.6875,1.7587089538574219
21-03-1985,4.625,4.65625,334400,4.703125,4.671875,1.7528467178344727
22-03-1985,4.65625,4.6875,413600,4.734375,4.703125,1.7645715475082397
25-03-1985,4.65625,4.703125,211200,4.734375,4.703125,1.7645715475082397
26-03-1985,4.6875,4.71875,472000,4.78125,4.71875,1.770434021949768
27-03-1985,4.703125,4.734375,250400,4.75,4.734375,1.7762963771820068
28-03-1985,4.640625,4.734375,610400,4.734375,4.671875,1.7528467178344727
29-03-1985,4.625,4.703125,410400,4.703125,4.65625,1.7469843626022339
01-04-1985,4.65625,4.671875,460800,4.703125,4.6875,1.7587089538574219
02-04-1985,4.671875,4.703125,448000,4.71875,4.703125,1.7645715475082397
03-04-1985,4.671875,4.671875,388000,4.75,4.75,1.7821589708328247
04-04-1985,4.703125,4.703125,434400,4.75,4.734375,1.7762963771820068
08-04-1985,4.703125,4.734375,388000,4.734375,4.734375,1.7762963771820068
09-04-1985,4.6875,4.6875,454400,4.71875,4.71875,1.770434021949768
10-04-1985,4.65625,4.78125,894400,4.78125,4.6875,1.7587089538574219
11-04-1985,4.671875,4.703125,643200,4.71875,4.6875,1.7587089538574219
12-04-1985,4.625,4.65625,1068800,4.6875,4.65625,1.7469843626022339
15-04-1985,4.625,4.625,189600,4.6875,4.6875,1.7587089538574219
16-04-1985,4.578125,4.640625,768800,4.671875,4.625,1.7352590560913086
17-04-1985,4.421875,4.5625,2160800,4.578125,4.484375,1.682498812675476
18-04-1985,4.390625,4.40625,640800,4.4375,4.421875,1.6590484380722046
19-04-1985,4.390625,4.4375,615200,4.453125,4.4375,1.6649112701416016
22-04-1985,4.34375,4.40625,780000,4.40625,4.40625,1.6531867980957031
23-04-1985,4.34375,4.34375,564000,4.453125,4.453125,1.6707732677459717
24-04-1985,4.375,4.390625,4750400,4.453125,4.390625,1.6473243236541748
25-04-1985,4.34375,4.4375,649600,4.4375,4.4375,1.6649112701416016
26-04-1985,4.390625,4.40625,842400,4.4375,4.421875,1.6590484380722046
29-04-1985,4.375,4.421875,504000,4.421875,4.390625,1.6473243236541748
30-04-1985,4.34375,4.359375,612800,4.375,4.359375,1.6355998516082764
01-05-1985,4.34375,4.359375,2526400,4.40625,4.34375,1.6297376155853271
02-05-1985,4.3125,4.328125,977600,4.359375,4.359375,1.6355998516082764
03-05-1985,4.34375,4.359375,497600,4.40625,4.390625,1.6473243236541748
06-05-1985,4.3125,4.359375,297600,4.375,4.3125,1.636650562286377
07-05-1985,4.3125,4.34375,423200,4.375,4.375,1.660369873046875
08-05-1985,4.328125,4.375,1213600,4.375,4.34375,1.6485106945037842
09-05-1985,4.359375,4.359375,549600,4.40625,4.40625,1.6722301244735718
10-05-1985,4.40625,4.421875,1000000,4.53125,4.515625,1.713738203048706
13-05-1985,4.46875,4.546875,528000,4.546875,4.5,1.7078083753585815
14-05-1985,4.53125,4.53125,852000,4.625,4.59375,1.7433876991271973
15-05-1985,4.59375,4.609375,1112000,4.6875,4.640625,1.7611780166625977
16-05-1985,4.65625,4.671875,509600,4.75,4.75,1.8026875257492065
17-05-1985,4.78125,4.78125,1585600,4.859375,4.84375,1.8382667303085327
20-05-1985,4.875,4.890625,1227200,4.96875,4.9375,1.8738466501235962
21-05-1985,4.90625,4.9375,665600,4.96875,4.953125,1.8797764778137207
22-05-1985,4.921875,4.9375,1565600,4.96875,4.9375,1.8738466501235962
23-05-1985,4.875,4.921875,925600,4.953125,4.953125,1.8797764778137207
24-05-1985,4.890625,4.96875,918400,4.984375,4.921875,1.8679157495498657
28-05-1985,4.828125,4.90625,714400,4.921875,4.859375,1.8441959619522095
29-05-1985,4.828125,4.84375,803200,4.90625,4.875,1.8501249551773071
30-05-1985,4.84375,4.890625,470400,4.90625,4.875,1.8501249551773071
31-05-1985,4.84375,4.875,618400,4.90625,4.890625,1.8560563325881958
03-06-1985,4.796875,4.859375,446400,4.890625,4.8125,1.8264071941375732
04-06-1985,4.78125,4.78125,4740800,4.96875,4.921875,1.8679157495498657
05-06-1985,4.9375,4.953125,2116000,5.109375,5.09375,1.9331458806991577
06-06-1985,5.03125,5.09375,1146400,5.109375,5.109375,1.9390746355056763
07-06-1985,5.09375,5.09375,784000,5.1875,5.15625,1.9568649530410767
10-06-1985,5.125,5.15625,580800,5.15625,5.125,1.9450035095214844
11-06-1985,5.09375,5.140625,719200,5.140625,5.109375,1.9390746355056763
12-06-1985,5.078125,5.109375,701600,5.125,5.09375,1.9331458806991577
13-06-1985,5.078125,5.125,1678400,5.15625,5.09375,1.9331458806991577
14-06-1985,5.125,5.140625,594400,5.234375,5.21875,1.9805848598480225
17-06-1985,5.1875,5.203125,363200,5.25,5.25,1.9924442768096924
18-06-1985,5.171875,5.21875,696800,5.28125,5.1875,1.9687249660491943
19-06-1985,5.15625,5.203125,1571200,5.28125,5.25,1.9924442768096924
20-06-1985,5.21875,5.21875,241600,5.28125,5.28125,2.0043039321899414
21-06-1985,5.25,5.25,808000,5.296875,5.296875,2.0102341175079346
24-06-1985,5.21875,5.265625,1336800,5.28125,5.265625,1.9983744621276855
25-06-1985,5.1875,5.25,1568000,5.359375,5.203125,1.9746540784835815
26-06-1985,5.1875,5.21875,676000,5.28125,5.25,1.9924442768096924
27-06-1985,5.21875,5.25,648000,5.296875,5.21875,1.9805848598480225
28-06-1985,5.203125,5.25,646400,5.265625,5.234375,1.9865144491195679
01-07-1985,5.203125,5.234375,485600,5.296875,5.28125,2.0043039321899414
02-07-1985,5.25,5.265625,669600,5.3125,5.3125,2.016162157058716
03-07-1985,5.28125,5.3125,1062400,5.4375,5.40625,2.051743507385254
05-07-1985,5.390625,5.40625,444000,5.421875,5.421875,2.0576729774475098
08-07-1985,5.390625,5.390625,688000,5.421875,5.421875,2.0576729774475098
09-07-1985,5.328125,5.421875,791200,5.421875,5.390625,2.0458145141601562
10-07-1985,5.34375,5.375,2248800,5.40625,5.375,2.0398833751678467
11-07-1985,5.328125,5.328125,1067200,5.390625,5.390625,2.0458145141601562
12-07-1985,5.390625,5.421875,568800,5.453125,5.453125,2.0695321559906006
15-07-1985,5.4375,5.46875,708800,5.5,5.453125,2.0695321559906006
16-07-1985,5.421875,5.453125,656800,5.53125,5.5,2.087322950363159
17-07-1985,5.59375,5.625,2698400,5.671875,5.671875,2.1525535583496094
18-07-1985,5.625,5.671875,1896000,5.796875,5.78125,2.194060802459717
19-07-1985,5.734375,5.75,1309600,5.90625,5.875,2.2296409606933594
22-07-1985,5.71875,5.84375,429600,5.859375,5.765625,2.18812894821167
23-07-1985,5.59375,5.796875,941600,5.8125,5.625,2.1347601413726807
24-07-1985,5.5,5.65625,410400,5.65625,5.53125,2.09918212890625
25-07-1985,5.5,5.53125,535200,5.5625,5.5625,2.1110410690307617
26-07-1985,5.546875,5.546875,1002400,5.734375,5.71875,2.170339584350586
29-07-1985,5.59375,5.734375,928000,5.734375,5.640625,2.140690803527832
30-07-1985,5.59375,5.625,361600,5.65625,5.640625,2.140690803527832
31-07-1985,5.625,5.640625,216800,5.6875,5.671875,2.1525535583496094
01-08-1985,5.625,5.671875,372800,5.6875,5.65625,2.146620273590088
02-08-1985,5.640625,5.671875,945600,5.734375,5.6875,2.1584811210632324
05-08-1985,5.640625,5.6875,348800,5.6875,5.65625,2.146620273590088
06-08-1985,5.46875,5.5,2713600,5.65625,5.5,2.105938196182251
07-08-1985,5.40625,5.5,1204000,5.53125,5.5,2.105938196182251
08-08-1985,5.5,5.53125,1320000,5.6875,5.6875,2.1777310371398926
09-08-1985,5.609375,5.65625,725600,5.703125,5.640625,2.1597824096679688
12-08-1985,5.609375,5.609375,644000,5.65625,5.625,2.153799533843994
13-08-1985,5.625,5.640625,587200,5.6875,5.640625,2.1597824096679688
14-08-1985,5.625,5.625,302400,5.6875,5.65625,2.165764808654785
15-08-1985,5.53125,5.671875,822400,5.671875,5.53125,2.117905616760254
16-08-1985,5.375,5.5,678400,5.53125,5.421875,2.0760247707366943
19-08-1985,5.421875,5.421875,441600,5.484375,5.453125,2.087989091873169
20-08-1985,5.453125,5.484375,385600,5.578125,5.546875,2.1238865852355957
21-08-1985,5.453125,5.53125,1249600,5.625,5.5625,2.1298675537109375
22-08-1985,5.484375,5.59375,1018400,5.59375,5.5,2.105938196182251
23-08-1985,5.4375,5.46875,458400,5.5625,5.484375,2.0999557971954346
26-08-1985,5.484375,5.484375,340800,5.546875,5.5,2.105938196182251
27-08-1985,5.484375,5.484375,152800,5.5625,5.5625,2.1298675537109375
28-08-1985,5.46875,5.5625,448800,5.578125,5.5,2.105938196182251
29-08-1985,5.484375,5.5,355200,5.546875,5.53125,2.117905616760254
30-08-1985,5.484375,5.53125,737600,5.546875,5.53125,2.117905616760254
03-09-1985,5.515625,5.546875,384000,5.6875,5.6875,2.1777310371398926
04-09-1985,5.625,5.6875,371200,5.734375,5.671875,2.1717498302459717
05-09-1985,5.5625,5.6875,484000,5.6875,5.578125,2.135852098464966
06-09-1985,5.484375,5.5625,406400,5.59375,5.546875,2.1238865852355957
09-09-1985,5.5,5.5625,142400,5.5625,5.5,2.105938196182251
10-09-1985,5.46875,5.46875,272800,5.515625,5.5,2.105938196182251
11-09-1985,5.375,5.5,1280000,5.5,5.390625,2.0640599727630615
12-09-1985,5.34375,5.375,597600,5.4375,5.375,2.0580763816833496
13-09-1985,5.375,5.375,556800,5.4375,5.421875,2.0760247707366943
16-09-1985,5.40625,5.453125,253600,5.53125,5.515625,2.1119203567504883
17-09-1985,5.515625,5.515625,879200,5.625,5.609375,2.1478192806243896
18-09-1985,5.484375,5.578125,427200,5.640625,5.484375,2.0999557971954346
19-09-1985,5.453125,5.515625,568000,5.515625,5.484375,2.0999557971954346
20-09-1985,5.421875,5.453125,589600,5.53125,5.46875,2.0939714908599854
23-09-1985,5.53125,5.53125,484000,5.59375,5.59375,2.141835927963257
24-09-1985,5.578125,5.59375,599200,5.65625,5.609375,2.1478192806243896
25-09-1985,5.546875,5.546875,301600,5.609375,5.609375,2.1478192806243896
26-09-1985,5.53125,5.625,360000,5.625,5.59375,2.141835927963257
30-09-1985,5.578125,5.59375,349600,5.625,5.625,2.153799533843994
01-10-1985,5.59375,5.609375,324000,5.703125,5.703125,2.183715581893921
02-10-1985,5.59375,5.71875,1103200,5.796875,5.59375,2.141835927963257
03-10-1985,5.578125,5.578125,260800,5.6875,5.609375,2.1478192806243896
04-10-1985,5.546875,5.609375,794400,5.609375,5.578125,2.135852098464966
07-10-1985,5.390625,5.5625,848800,5.5625,5.40625,2.0700414180755615
08-10-1985,5.40625,5.4375,253600,5.484375,5.453125,2.087989091873169
09-10-1985,5.40625,5.421875,2060000,5.46875,5.4375,2.082008123397827
10-10-1985,5.421875,5.421875,260000,5.453125,5.4375,2.082008123397827
11-10-1985,5.40625,5.40625,1391200,5.46875,5.46875,2.0939714908599854
14-10-1985,5.453125,5.46875,680000,5.53125,5.53125,2.117905616760254
15-10-1985,5.53125,5.5625,476800,5.59375,5.59375,2.141835927963257
16-10-1985,5.578125,5.578125,1112000,5.671875,5.671875,2.1717498302459717
17-10-1985,5.640625,5.640625,757600,5.703125,5.6875,2.1777310371398926
18-10-1985,5.5625,5.671875,757600,5.703125,5.578125,2.135852098464966
21-10-1985,5.5625,5.59375,1012800,5.734375,5.65625,2.165764808654785
22-10-1985,5.65625,5.671875,692000,5.71875,5.703125,2.183715581893921
23-10-1985,5.59375,5.703125,376800,5.703125,5.671875,2.1717498302459717
24-10-1985,5.59375,5.65625,386400,5.671875,5.625,2.153799533843994
25-10-1985,5.515625,5.59375,182400,5.609375,5.609375,2.1478192806243896
28-10-1985,5.546875,5.609375,180000,5.625,5.609375,2.1478192806243896
29-10-1985,5.609375,5.609375,212800,5.65625,5.65625,2.165764808654785
30-10-1985,5.625,5.625,640000,5.671875,5.671875,2.1717498302459717
31-10-1985,5.65625,5.65625,524000,5.6875,5.6875,2.1777310371398926
01-11-1985,5.65625,5.65625,965600,5.890625,5.890625,2.2555086612701416
04-11-1985,5.859375,5.90625,1089600,6.0,5.90625,2.2614903450012207
05-11-1985,5.8125,6.015625,884000,6.015625,6.015625,2.3250205516815186
06-11-1985,6.015625,6.015625,1521600,6.15625,6.046875,2.3370981216430664
07-11-1985,6.03125,6.046875,840000,6.15625,6.15625,2.3793725967407227
08-11-1985,6.046875,6.125,337600,6.125,6.09375,2.3552160263061523
11-11-1985,6.03125,6.09375,656800,6.15625,6.15625,2.3793725967407227
12-11-1985,6.125,6.125,1264800,6.25,6.234375,2.409566640853882
13-11-1985,6.140625,6.25,449600,6.25,6.140625,2.3733317852020264
14-11-1985,6.078125,6.125,614400,6.234375,6.171875,2.385411024093628
15-11-1985,6.15625,6.15625,1276800,6.3125,6.203125,2.3974905014038086
18-11-1985,6.140625,6.21875,1349600,6.296875,6.296875,2.4337234497070312
19-11-1985,6.34375,6.375,854400,6.421875,6.421875,2.4820334911346436
20-11-1985,6.34375,6.375,290400,6.40625,6.375,2.4639182090759277
21-11-1985,6.34375,6.375,668800,6.40625,6.375,2.4639182090759277
22-11-1985,6.203125,6.34375,374400,6.375,6.21875,2.403529167175293
25-11-1985,6.1875,6.3125,424800,6.3125,6.265625,2.421644449234009
26-11-1985,6.0625,6.234375,1265600,6.25,6.15625,2.3793725967407227
27-11-1985,6.1875,6.1875,1169600,6.3125,6.28125,2.427685022354126
29-11-1985,6.203125,6.25,924800,6.3125,6.234375,2.409566640853882
02-12-1985,6.125,6.203125,472800,6.21875,6.203125,2.3974905014038086
03-12-1985,6.171875,6.21875,650400,6.25,6.1875,2.3914501667022705
04-12-1985,6.03125,6.0625,2110400,6.1875,6.171875,2.385411024093628
05-12-1985,5.9375,6.15625,1506400,6.1875,5.9375,2.2948262691497803
06-12-1985,5.5625,5.90625,1225600,5.90625,5.859375,2.2646312713623047
09-12-1985,5.828125,5.828125,827200,6.078125,5.96875,2.3069045543670654
10-12-1985,5.9375,5.9375,409600,6.03125,5.953125,2.3008642196655273
11-12-1985,5.9375,5.9375,549600,6.0,5.984375,2.312943935394287
12-12-1985,5.90625,5.984375,1932000,6.0625,5.984375,2.312943935394287
13-12-1985,5.984375,5.984375,625600,6.234375,6.203125,2.3974905014038086
16-12-1985,6.140625,6.1875,1236000,6.359375,6.34375,2.4518392086029053
17-12-1985,6.1875,6.359375,1179200,6.359375,6.359375,2.4578795433044434
18-12-1985,6.28125,6.328125,987200,6.375,6.34375,2.4518392086029053
19-12-1985,6.28125,6.296875,683200,6.359375,6.296875,2.4337234497070312
20-12-1985,6.25,6.296875,795200,6.375,6.375,2.4639182090759277
23-12-1985,6.28125,6.3125,602400,6.375,6.359375,2.4578795433044434
24-12-1985,6.09375,6.3125,727200,6.3125,6.140625,2.3733317852020264
26-12-1985,6.09375,6.125,173600,6.140625,6.109375,2.361254930496216
27-12-1985,6.078125,6.078125,525600,6.1875,6.1875,2.3914501667022705
30-12-1985,6.15625,6.1875,418400,6.265625,6.265625,2.421644449234009
31-12-1985,6.25,6.28125,786400,6.375,6.375,2.4639182090759277
02-01-1986,6.296875,6.375,540800,6.375,6.328125,2.44580078125
03-01-1986,6.25,6.3125,650400,6.34375,6.296875,2.4337234497070312
06-01-1986,6.140625,6.296875,427200,6.296875,6.1875,2.3914501667022705
07-01-1986,6.03125,6.21875,592000,6.234375,6.125,2.367295026779175
08-01-1986,5.6875,6.15625,1376800,6.171875,5.71875,2.2102794647216797
09-01-1986,5.625,5.625,1164800,5.828125,5.828125,2.2525532245635986
10-01-1986,5.765625,5.8125,749600,5.84375,5.78125,2.2344350814819336
13-01-1986,5.765625,5.78125,688800,5.84375,5.78125,2.2344350814819336
14-01-1986,5.71875,5.78125,1518400,5.796875,5.765625,2.2283976078033447
15-01-1986,5.71875,5.75,1378400,5.90625,5.90625,2.2827489376068115
16-01-1986,5.875,5.921875,352000,6.03125,5.984375,2.312943935394287
17-01-1986,5.9375,5.953125,518400,6.0625,6.015625,2.3250205516815186
20-01-1986,5.890625,5.984375,744800,5.984375,5.96875,2.3069045543670654
21-01-1986,5.875,5.953125,740000,6.0,5.921875,2.2887871265411377
22-01-1986,5.8125,5.96875,1319200,6.0,5.8125,2.246513843536377
23-01-1986,5.765625,5.78125,598400,5.875,5.828125,2.2525532245635986
24-01-1986,5.8125,5.8125,909600,5.953125,5.953125,2.3008642196655273
27-01-1986,5.890625,5.90625,435200,5.984375,5.96875,2.3069045543670654
28-01-1986,5.9375,6.0,480800,6.0,5.953125,2.3008642196655273
29-01-1986,5.953125,5.984375,848000,6.125,6.03125,2.3310604095458984
30-01-1986,6.0,6.015625,881600,6.109375,6.0625,2.3431386947631836
31-01-1986,6.078125,6.109375,1335200,6.171875,6.140625,2.3733317852020264
03-02-1986,6.109375,6.109375,628000,6.21875,6.203125,2.3974905014038086
04-02-1986,6.21875,6.25,1524000,6.28125,6.234375,2.409566640853882
05-02-1986,6.234375,6.25,1951200,6.328125,6.3125,2.439762592315674
06-02-1986,6.328125,6.34375,1742400,6.453125,6.421875,2.4820334911346436
07-02-1986,6.359375,6.421875,972000,6.53125,6.53125,2.5243091583251953
10-02-1986,6.546875,6.703125,1145600,6.734375,6.703125,2.5907366275787354
11-02-1986,6.640625,6.875,1729600,6.890625,6.875,2.6791491508483887
12-02-1986,6.75,6.84375,1461600,6.90625,6.75,2.6304376125335693
13-02-1986,6.6875,6.71875,1157600,6.875,6.875,2.6791491508483887
14-02-1986,6.734375,6.90625,1000000,6.96875,6.96875,2.715684413909912
18-02-1986,6.96875,7.0,1034400,7.15625,7.125,2.77657413482666
19-02-1986,7.125,7.15625,1052000,7.34375,7.171875,2.7948389053344727
20-02-1986,7.125,7.171875,2320800,7.234375,7.15625,2.7887516021728516
21-02-1986,7.140625,7.15625,1183200,7.3125,7.265625,2.831374168395996
24-02-1986,7.15625,7.21875,668800,7.3125,7.296875,2.8435521125793457
25-02-1986,7.15625,7.3125,1738400,7.34375,7.21875,2.8131067752838135
26-02-1986,7.21875,7.25,732000,7.296875,7.28125,2.8374624252319336
27-02-1986,7.25,7.3125,463200,7.375,7.328125,2.8557302951812744
28-02-1986,7.46875,7.5,1215200,7.6875,7.6875,2.995777130126953
03-03-1986,7.421875,7.6875,721600,7.6875,7.453125,2.904442548751831
04-03-1986,7.34375,7.453125,1326400,7.6875,7.53125,2.934887170791626
05-03-1986,7.46875,7.5625,562400,7.5625,7.5625,2.94706392288208
06-03-1986,7.5625,7.59375,1779200,8.046875,7.984375,3.111467123031616
07-03-1986,7.84375,7.984375,1203200,7.984375,7.90625,3.0810225009918213
10-03-1986,7.71875,7.90625,428000,7.96875,7.71875,3.0079545974731445
11-03-1986,7.703125,7.703125,742400,7.921875,7.890625,3.074932098388672
12-03-1986,7.875,7.875,964800,8.15625,8.03125,3.1297340393066406
13-03-1986,7.921875,8.0625,636000,8.125,8.09375,3.154088020324707
14-03-1986,7.53125,8.0625,1812800,8.125,8.0625,3.141911506652832
17-03-1986,7.78125,7.96875,766400,8.0625,7.984375,3.111467123031616
18-03-1986,7.8125,7.96875,484800,7.984375,7.953125,3.099287748336792
19-03-1986,7.8125,7.921875,692000,7.96875,7.90625,3.0810225009918213
20-03-1986,7.875,7.90625,1108000,8.0625,8.0625,3.141911506652832
21-03-1986,8.0625,8.125,1337600,8.21875,8.15625,3.17844557762146
24-03-1986,8.125,8.21875,1558400,8.265625,8.203125,3.1967124938964844
25-03-1986,7.9375,8.1875,685600,8.1875,8.109375,3.1601784229278564
26-03-1986,8.015625,8.109375,904000,8.109375,8.046875,3.1358230113983154
27-03-1986,8.0,8.09375,678400,8.109375,8.015625,3.1236445903778076
31-03-1986,8.03125,8.078125,582400,8.109375,8.078125,3.148000717163086
01-04-1986,8.015625,8.109375,619200,8.109375,8.015625,3.1236445903778076
02-04-1986,7.96875,8.03125,1211200,8.046875,8.046875,3.1358230113983154
03-04-1986,7.9375,8.046875,392800,8.078125,7.96875,3.105377435684204
04-04-1986,7.59375,7.9375,819200,8.09375,7.59375,2.959242343902588
07-04-1986,7.546875,7.59375,560800,7.65625,7.65625,2.98359751701355
08-04-1986,7.640625,7.671875,503200,7.875,7.75,3.0201327800750732
09-04-1986,7.609375,7.8125,917600,7.890625,7.625,2.971419334411621
10-04-1986,7.375,7.65625,1039200,7.65625,7.59375,2.959242343902588
11-04-1986,7.546875,7.578125,458400,7.65625,7.625,2.971419334411621
14-04-1986,7.53125,7.65625,730400,7.671875,7.625,2.971419334411621
15-04-1986,7.625,7.65625,269600,7.734375,7.640625,2.9775097370147705
16-04-1986,7.71875,7.71875,1074400,8.28125,8.25,3.214979887008667
17-04-1986,7.9375,8.1875,801600,8.234375,8.0,3.117556095123291
18-04-1986,7.640625,8.03125,1028000,8.046875,8.03125,3.1297340393066406
21-04-1986,8.0,8.09375,858400,8.109375,8.078125,3.148000717163086
22-04-1986,8.125,8.21875,1219200,8.28125,8.25,3.214979887008667
23-04-1986,8.1875,8.25,945600,8.28125,8.25,3.214979887008667
24-04-1986,8.1875,8.1875,652800,8.265625,8.203125,3.1967124938964844
25-04-1986,8.15625,8.203125,555200,8.234375,8.234375,3.208890914916992
28-04-1986,8.15625,8.234375,561600,8.265625,8.234375,3.208890914916992
29-04-1986,8.015625,8.203125,452000,8.203125,8.09375,3.154088020324707
30-04-1986,8.09375,8.171875,1053600,8.28125,8.125,3.1662652492523193
01-05-1986,8.03125,8.09375,796000,8.25,8.234375,3.208890914916992
02-05-1986,8.125,8.203125,712800,8.265625,8.203125,3.1967124938964844
05-05-1986,8.125,8.171875,431200,8.25,8.21875,3.2027993202209473
06-05-1986,8.09375,8.09375,180800,8.1875,8.09375,3.177283763885498
07-05-1986,8.09375,8.140625,590400,8.25,8.234375,3.2324905395507812
08-05-1986,8.03125,8.28125,355200,8.28125,8.046875,3.158883810043335
09-05-1986,7.921875,8.015625,398400,8.015625,7.921875,3.1098146438598633
12-05-1986,7.796875,7.9375,1021600,7.953125,7.796875,3.060741662979126
13-05-1986,7.65625,7.796875,651200,7.796875,7.703125,3.0239405632019043
14-05-1986,7.625,7.71875,809600,7.734375,7.625,2.9932708740234375
15-05-1986,7.4375,7.640625,608000,7.640625,7.46875,2.9319334030151367
16-05-1986,7.3125,7.4375,1061600,7.5,7.5,2.9442009925842285
19-05-1986,7.515625,7.53125,737600,7.625,7.609375,2.9871387481689453
20-05-1986,7.5625,7.609375,799200,7.75,7.734375,3.0362093448638916
21-05-1986,7.640625,7.75,1017600,7.796875,7.75,3.0423436164855957
22-05-1986,7.734375,7.75,465600,7.90625,7.90625,3.103679895401001
23-05-1986,7.890625,7.921875,533600,8.03125,8.015625,3.146615743637085
27-05-1986,7.953125,7.984375,221600,8.015625,7.984375,3.1343483924865723
28-05-1986,7.875,7.984375,617600,8.0,7.953125,3.122079849243164
29-05-1986,7.8125,7.921875,1089600,7.9375,7.9375,3.1159474849700928
30-05-1986,7.828125,7.875,1028000,7.90625,7.890625,3.097546100616455
02-06-1986,7.875,7.90625,1261600,7.953125,7.953125,3.122079849243164
03-06-1986,7.90625,7.921875,451200,7.953125,7.953125,3.122079849243164
04-06-1986,7.96875,7.984375,777600,8.109375,8.09375,3.177283763885498
05-06-1986,8.015625,8.09375,804800,8.109375,8.109375,3.183417558670044
06-06-1986,7.890625,8.078125,664800,8.09375,7.921875,3.1098146438598633
09-06-1986,7.578125,7.890625,507200,7.890625,7.625,2.9932708740234375
10-06-1986,7.59375,7.609375,776800,7.71875,7.65625,3.0055389404296875
11-06-1986,7.625,7.671875,693600,7.734375,7.71875,3.030076026916504
12-06-1986,7.640625,7.6875,357600,7.859375,7.859375,3.0852789878845215
13-06-1986,7.84375,7.84375,600000,8.03125,8.03125,3.1527504920959473
16-06-1986,7.9375,8.0,724000,8.0625,8.0625,3.165015459060669
17-06-1986,7.859375,8.0625,438400,8.0625,7.96875,3.12821364402771
18-06-1986,7.828125,7.96875,331200,7.96875,7.921875,3.1098146438598633
19-06-1986,7.6875,7.921875,492000,7.9375,7.78125,3.0546085834503174
20-06-1986,7.765625,7.78125,617600,7.875,7.84375,3.079146385192871
23-06-1986,7.78125,7.875,881600,7.9375,7.90625,3.103679895401001
24-06-1986,7.890625,7.9375,989600,8.109375,8.0625,3.165015459060669
25-06-1986,8.078125,8.109375,1040000,8.171875,8.171875,3.207951307296753
26-06-1986,8.21875,8.34375,1207200,8.6875,8.6875,3.410367965698242
27-06-1986,8.53125,8.65625,572000,8.65625,8.59375,3.373565673828125
30-06-1986,8.5,8.5625,396000,8.640625,8.515625,3.3428971767425537
01-07-1986,8.46875,8.5,1366400,8.546875,8.53125,3.349029302597046
02-07-1986,8.4375,8.53125,1432800,8.53125,8.46875,3.3244948387145996
03-07-1986,8.3125,8.484375,1009600,8.484375,8.421875,3.3060929775238037
07-07-1986,8.15625,8.453125,603200,8.453125,8.15625,3.2018215656280518
08-07-1986,7.765625,8.0,1141600,8.0,7.9375,3.1159474849700928
09-07-1986,7.828125,7.9375,952800,7.96875,7.921875,3.1098146438598633
10-07-1986,7.703125,7.921875,696000,7.921875,7.84375,3.079146385192871
11-07-1986,7.78125,7.875,1339200,7.875,7.875,3.09141206741333
14-07-1986,7.71875,7.84375,626400,7.84375,7.765625,3.048475503921509
15-07-1986,7.5,7.71875,1178400,7.75,7.53125,2.956470251083374
16-07-1986,7.515625,7.625,808800,7.671875,7.515625,2.950336217880249
17-07-1986,7.5,7.5,1128000,7.671875,7.640625,2.9994068145751953
18-07-1986,7.65625,7.75,808800,7.90625,7.78125,3.0546085834503174
21-07-1986,7.65625,7.75,498400,7.75,7.71875,3.030076026916504
22-07-1986,7.6875,7.6875,740000,7.875,7.875,3.09141206741333
23-07-1986,7.8125,7.859375,1444000,7.984375,7.96875,3.12821364402771
24-07-1986,7.9375,7.96875,552000,8.0625,8.0625,3.165015459060669
25-07-1986,7.96875,8.078125,448000,8.09375,8.09375,3.177283763885498
28-07-1986,7.8125,8.078125,580000,8.09375,7.8125,3.0668773651123047
29-07-1986,7.765625,7.828125,768800,7.828125,7.78125,3.0546085834503174
30-07-1986,7.65625,7.78125,514400,7.796875,7.703125,3.0239405632019043
31-07-1986,7.65625,7.734375,704800,7.734375,7.703125,3.0239405632019043
01-08-1986,7.59375,7.6875,1102400,7.6875,7.59375,2.9810054302215576
04-08-1986,7.5,7.5625,620800,7.859375,7.859375,3.0852789878845215
05-08-1986,7.71875,7.71875,760800,7.875,7.71875,3.053384304046631
06-08-1986,7.53125,7.625,532800,7.640625,7.5625,2.9915740489959717
07-08-1986,7.484375,7.59375,768800,7.625,7.5,2.966852903366089
08-08-1986,7.40625,7.546875,616800,7.546875,7.53125,2.979212522506714
11-08-1986,7.53125,7.5625,1471200,7.859375,7.859375,3.109013795852661
12-08-1986,7.78125,7.828125,952000,7.984375,7.921875,3.133737802505493
13-08-1986,7.921875,7.921875,2211200,8.25,8.1875,3.238814353942871
14-08-1986,8.203125,8.234375,1181600,8.28125,8.234375,3.257355213165283
15-08-1986,8.15625,8.3125,1148000,8.3125,8.265625,3.269717216491699
18-08-1986,8.125,8.25,1219200,8.25,8.21875,3.251173973083496
19-08-1986,8.171875,8.1875,1656000,8.203125,8.171875,3.2326302528381348
20-08-1986,8.1875,8.203125,1321600,8.359375,8.359375,3.306802749633789
21-08-1986,8.34375,8.375,1935200,8.5,8.4375,3.3377084732055664
22-08-1986,8.34375,8.46875,779200,8.46875,8.375,3.3129842281341553
25-08-1986,8.28125,8.34375,586400,8.359375,8.296875,3.282078742980957
26-08-1986,8.296875,8.296875,1156800,8.5,8.46875,3.3500711917877197
27-08-1986,8.4375,8.453125,981600,8.53125,8.53125,3.374793767929077
28-08-1986,8.5,8.53125,1001600,8.671875,8.640625,3.4180610179901123
29-08-1986,8.59375,8.59375,3828000,8.796875,8.71875,3.448965072631836
02-09-1986,8.453125,8.71875,1000000,8.71875,8.46875,3.3500711917877197
03-09-1986,8.375,8.46875,1630400,8.625,8.625,3.411879301071167
04-09-1986,8.640625,8.65625,2874400,9.0,8.890625,3.5169565677642822
05-09-1986,8.625,8.875,1639200,8.921875,8.671875,3.4304237365722656
08-09-1986,8.515625,8.59375,1348000,8.78125,8.75,3.46132755279541
09-09-1986,8.625,8.78125,1900800,8.859375,8.65625,3.4242420196533203
10-09-1986,8.5625,8.65625,1460000,8.8125,8.8125,3.4860501289367676
11-09-1986,8.4375,8.8125,2055200,8.8125,8.46875,3.3500711917877197
12-09-1986,8.1875,8.484375,2328800,8.5,8.34375,3.30062198638916
15-09-1986,8.390625,8.46875,1860800,8.484375,8.4375,3.3377084732055664
16-09-1986,8.375,8.4375,1300800,8.484375,8.453125,3.3438892364501953
17-09-1986,8.34375,8.453125,1265600,8.484375,8.34375,3.30062198638916
18-09-1986,8.3125,8.34375,861600,8.40625,8.359375,3.306802749633789
19-09-1986,8.28125,8.359375,1069600,8.421875,8.421875,3.331528663635254
22-09-1986,8.34375,8.390625,415200,8.4375,8.421875,3.331528663635254
23-09-1986,8.421875,8.4375,1432800,8.546875,8.546875,3.380974054336548
24-09-1986,8.390625,8.5,820800,8.5625,8.5625,3.3871564865112305
25-09-1986,8.3125,8.5625,1181600,8.5625,8.375,3.3129842281341553
26-09-1986,8.25,8.34375,456000,8.359375,8.3125,3.288261651992798
29-09-1986,7.9375,8.28125,1515200,8.28125,8.0,3.164641857147217
30-09-1986,7.96875,7.96875,930400,8.0625,8.015625,3.1708216667175293
01-10-1986,8.015625,8.046875,1239200,8.1875,8.125,3.214090347290039
02-10-1986,8.109375,8.171875,648800,8.203125,8.109375,3.207909107208252
03-10-1986,8.015625,8.078125,416000,8.1875,8.078125,3.195544719696045
06-10-1986,8.03125,8.046875,403200,8.15625,8.0625,3.1893653869628906
07-10-1986,8.046875,8.078125,541600,8.140625,8.078125,3.195544719696045
08-10-1986,8.078125,8.109375,1105600,8.21875,8.1875,3.238814353942871
09-10-1986,8.21875,8.21875,1460800,8.28125,8.21875,3.251173973083496
10-10-1986,8.140625,8.203125,465600,8.203125,8.15625,3.226452112197876
